M.CO2_At Time [a],M.CO2_At CO2 [mol/kg]
0.0,0.00028
100.0,0.00027613992901770674
200.0,0.0002742391288226228
300.0,0.00027318592187305007
400.0,0.00027259017332093526
500.0,0.00027224130659349283
600.0,0.00027202749676156465
700.0,0.00027188816963785885
800.0,0.0002717901681816187
900.0,0.00027171657446171976
1000.0,0.00027165726541096596
1100.0,0.00027160666386203124
1200.0,0.0002715619601466085
1300.0,0.0002715217184611509
1400.0,0.00027148465158406714
1500.0,0.0002714503011706629
1600.0,0.00027141807353603837
1700.0,0.00027138830314654526
1800.0,0.0002713605823204474
1900.0,0.0002713345557671348
2000.0,0.0002713100013752467
2100.0,0.0002712868889130767
2200.0,0.0002712648877599713
2300.0,0.0002712437482193888
2400.0,0.0002712231968363576
2500.0,0.0002712031079188605
2600.0,0.00027118340914196015
2700.0,0.0002711640518654232
2800.0,0.00027114501531402824
2900.0,0.0002711262803722601
3000.0,0.00027110783703715864
3100.0,0.0002710896802555828
3200.0,0.0002710717985814591
3300.0,0.00027105419336096256
3400.0,0.0002710368530259719
3500.0,0.00027101978520769807
3600.0,0.00027100297039994736
3700.0,0.00027098641636153246
3800.0,0.0002709701135156607
3900.0,0.0002709540566839949
4000.0,0.0002709382499436097
4100.0,0.0002709226790450317
4200.0,0.00027090734741926363
4300.0,0.0002708922487387495
4400.0,0.00027087737699088457
4500.0,0.00027086273931717516
4600.0,0.00027084831994193494
4700.0,0.00027083411778269193
4800.0,0.00027082014125158
4900.0,0.00027080636670361545
5000.0,0.000270792806384865
5100.0,0.0002707794574338802
5200.0,0.0002707663031713068
5300.0,0.0002707533524050303
5400.0,0.0002707406026328501
5500.0,0.0002707280406915051
5600.0,0.00027071566979785356
5700.0,0.0002707034957361743
5800.0,0.00027069150093323834
5900.0,0.00027067968289541883
6000.0,0.0002706680561595992
6100.0,0.00027065660462037366
6200.0,0.0002706453164508168
6300.0,0.0002706342082268001
6400.0,0.0002706232759527792
6500.0,0.0002706124976522518
6600.0,0.00027060188447001506
6700.0,0.00027059143893672213
6800.0,0.0002705811525634961
6900.0,0.00027057101594113757
7000.0,0.0002705610340065007
7100.0,0.0002705512072384061
7200.0,0.0002705415344190249
7300.0,0.0002705320006204759
7400.0,0.0002705226088095683
7500.0,0.0002705133664703262
7600.0,0.0002705042737549287
7700.0,0.0002704953073251001
7800.0,0.00027048646973618654
7900.0,0.00027047777611956025
8000.0,0.00027046922486014067
8100.0,0.0002704607968368037
8200.0,0.000270452483310347
8300.0,0.00027044430236415065
8400.0,0.00027043625287451667
8500.0,0.0002704283319984753
8600.0,0.00027042051903857097
8700.0,0.00027041282157621725
8800.0,0.0002704052439281421
8900.0,0.000270397785244298
9000.0,0.0002703904440535828
9100.0,0.0002703832118970146
9200.0,0.00027037608329149123
9300.0,0.0002703690610075433
9400.0,0.0002703621463373204
9500.0,0.00027035534207588076
9600.0,0.0002703486532939887
9700.0,0.0002703420555968266
9800.0,0.0002703355480975474
9900.0,0.0002703291351245799
10000.0,0.0002703228236601291
10100.0,0.00027031662071072077
10200.0,0.0002703105219068398
10300.0,0.000270304505183089
10400.0,0.00027029856408347224
10500.0,0.00027029270729062835
10600.0,0.00027028694819798037
10700.0,0.00027028128535951763
10800.0,0.0002702757154863213
10900.0,0.00027027023468714203
11000.0,0.0002702648202683693
11100.0,0.00027025947539800006
11200.0,0.0002702542158002162
11300.0,0.00027024904150608033
11400.0,0.00027024395052036026
11500.0,0.00027023894065458033
11600.0,0.00027023401006176333
11700.0,0.00027022915176505173
11800.0,0.00027022435558840476
11900.0,0.0002702196296682109
12000.0,0.0002702149754569434
12100.0,0.00027021039321704953
12200.0,0.0002702058823083149
12300.0,0.00027020144186957123
12400.0,0.00027019707099003917
12500.0,0.00027019278147376346
12600.0,0.0002701885535056027
12700.0,0.0002701843757983016
12800.0,0.0002701802540589893
12900.0,0.00027017619166694074
13000.0,0.0002701721899783926
13100.0,0.000270168249674691
13200.0,0.0002701643719659221
13300.0,0.00027016056646419334
13400.0,0.00027015682909392315
13500.0,0.00027015315668206996
13600.0,0.0002701495311054325
13700.0,0.00027014594139282454
13800.0,0.00027014239634659705
13900.0,0.00027013890013947626
14000.0,0.0002701354549163733
14100.0,0.00027013206388700687
14200.0,0.00027012873689694907
14300.0,0.0002701254701693942
14400.0,0.00027012226001241907
14500.0,0.00027011910316240124
14600.0,0.0002701159973054018
14700.0,0.00027011294062980845
14800.0,0.00027010991272402915
14900.0,0.00027010691228293295
15000.0,0.00027010394833148213
15100.0,0.00027010102447381086
15200.0,0.00027009815351829636
15300.0,0.00027009533574084553
15400.0,0.0002700925678650851
15500.0,0.00027008984669319456
15600.0,0.00027008716987409213
15700.0,0.00027008453584215436
15800.0,0.00027008194350534615
15900.0,0.0002700793920091909
16000.0,0.00027007688065943395
16100.0,0.0002700744087102441
16200.0,0.00027007196568614664
16300.0,0.00027006953701854357
16400.0,0.0002700671394741361
16500.0,0.0002700647837289557
16600.0,0.00027006246769954647
16700.0,0.0002700601899245069
16800.0,0.0002700579489839603
16900.0,0.0002700557437572193
17000.0,0.0002700535733895936
17100.0,0.0002700514371881829
17200.0,0.0002700493345481045
17300.0,0.0002700472649020161
17400.0,0.00027004522775954636
17500.0,0.0002700432225908712
17600.0,0.0002700412488624566
17700.0,0.0002700393060683282
17800.0,0.0002700373937248296
17900.0,0.0002700355189973808
18000.0,0.0002700336817622139
18100.0,0.00027003185737711365
18200.0,0.00027003004848857203
18300.0,0.00027002826100678255
18400.0,0.00027002649708501424
18500.0,0.0002700247585214723
18600.0,0.00027002304590094644
18700.0,0.0002700213595282827
18800.0,0.0002700196992769784
18900.0,0.0002700180648742865
19000.0,0.00027001645595395735
19100.0,0.0002700148721962452
19200.0,0.0002700133132380139
19300.0,0.00027001177870317926
19400.0,0.0002700102682145591
19500.0,0.00027000878139982437
19600.0,0.0002700073179152707
19700.0,0.00027000587739321274
19800.0,0.00027000445987425794
19900.0,0.0002700030793891922
20000.0,0.0002700017280654824
20100.0,0.0002700004025152626
20200.0,0.0002699991010224491
20300.0,0.0002699978218665951
20400.0,0.00026999656377619434
20500.0,0.00026999532590641615
20600.0,0.0002699941022174039
20700.0,0.00026999287392834027
20800.0,0.00026999164897773545
20900.0,0.0002699904348501532
21000.0,0.0002699892353192367
21100.0,0.0002699880516642651
21200.0,0.00026998688510141257
21300.0,0.0002699857359872709
21400.0,0.0002699846045150914
21500.0,0.0002699834905565983
21600.0,0.0002699823939649353
21700.0,0.00026998131450031254
21800.0,0.0002699802518989761
21900.0,0.00026997920593538723
22000.0,0.0002699781763597862
22100.0,0.0002699771629188683
22200.0,0.0002699761653672255
22300.0,0.00026997518344574724
22400.0,0.00026997421693680004
22500.0,0.0002699732655913562
22600.0,0.0002699723305950491
22700.0,0.0002699714285258065
22800.0,0.00026997054523802993
22900.0,0.00026996968057300193
23000.0,0.0002699688316587364
23100.0,0.0002699679972830807
23200.0,0.0002699671769156971
23300.0,0.00026996636997576737
23400.0,0.0002699655759842886
23500.0,0.00026996479458369293
23600.0,0.00026996402549812654
23700.0,0.00026996326849644
23800.0,0.00026996252338325725
23900.0,0.00026996178994185394
24000.0,0.0002699610680107133
24100.0,0.0002699603573963094
24200.0,0.00026995965791246014
24300.0,0.0002699589693821556
24400.0,0.0002699582916340471
24500.0,0.0002699576244997332
24600.0,0.0002699569678130335
24700.0,0.00026995632141016646
24800.0,0.0002699556851299464
24900.0,0.0002699550559295799
25000.0,0.0002699544142684754
25100.0,0.00026995376497038453
25200.0,0.00026995311599784503
25300.0,0.0002699524720439248
25400.0,0.0002699518353790789
25500.0,0.00026995120705373076
25600.0,0.00026995058764084693
25700.0,0.0002699499774332434
25800.0,0.00026994937653065845
25900.0,0.00026994878491992116
26000.0,0.00026994820250530007
26100.0,0.00026994762918244864
26200.0,0.0002699470648270096
26300.0,0.00026994650930864085
26400.0,0.000269945962502097
26500.0,0.0002699454242601427
26600.0,0.00026994489446690673
26700.0,0.0002699443729827526
26800.0,0.000269943859672449
26900.0,0.00026994335440676113
27000.0,0.00026994285706014384
27100.0,0.0002699423675089915
27200.0,0.0002699418856312404
27300.0,0.00026994141130655093
27400.0,0.00026994094441646965
27500.0,0.00026994048502009227
27600.0,0.0002699400478957577
27700.0,0.0002699396259573026
27800.0,0.00026993921591378194
27900.0,0.000269938813956411
28000.0,0.00026993842062738096
28100.0,0.00026993803444297007
28200.0,0.00026993765446603935
28300.0,0.00026993728071201915
28400.0,0.00026993691303804206
28500.0,0.0002699365512541034
28600.0,0.0002699361952037845
28700.0,0.0002699358447626295
28800.0,0.0002699354998259648
28900.0,0.0002699351602996391
29000.0,0.00026993482609506014
29100.0,0.00026993449712954916
29200.0,0.0002699341733201477
29300.0,0.00026993385458916216
29400.0,0.00026993354085232666
29500.0,0.0002699332320288801
29600.0,0.00026993292804145994
29700.0,0.0002699326288146245
29800.0,0.00026993233427401793
29900.0,0.0002699320443462564
30000.0,0.00026993175895904345
30100.0,0.0002699314780412345
30200.0,0.0002699312015228245
30300.0,0.00026993092933491494
30400.0,0.00026993066140968563
30500.0,0.00026993039768037587
30600.0,0.0002699301380812698
30700.0,0.000269929882547658
30800.0,0.0002699296310158788
30900.0,0.0002699293834232153
31000.0,0.00026992913970801195
31100.0,0.0002699288998095668
31200.0,0.0002699286636681253
31300.0,0.00026992843122483574
31400.0,0.00026992820242180415
31500.0,0.0002699279772019898
31600.0,0.00026992775550923877
31700.0,0.00026992753728831995
31800.0,0.00026992732248482627
31900.0,0.00026992711104527
32000.0,0.0002699269029169888
32100.0,0.0002699266980481424
32200.0,0.0002699264963876736
32300.0,0.0002699262978853564
32400.0,0.0002699261024917052
32500.0,0.0002699259101580041
32600.0,0.0002699257208363369
32700.0,0.0002699255344795023
32800.0,0.0002699253510410972
32900.0,0.0002699251704754346
33000.0,0.0002699249927375398
33100.0,0.0002699248177831179
33200.0,0.0002699246455685954
33300.0,0.00026992447605104087
33400.0,0.00026992430918820526
33500.0,0.0002699241449385118
33600.0,0.0002699239832610381
33700.0,0.00026992382411550125
33800.0,0.0002699236674622493
33900.0,0.00026992351326225056
34000.0,0.0002699233614770841
34100.0,0.0002699232120689316
34200.0,0.000269923065000567
34300.0,0.00026992292023534736
34400.0,0.00026992277773720333
34500.0,0.00026992263747063034
34600.0,0.00026992249940068055
34700.0,0.00026992236349295256
34800.0,0.0002699222297135845
34900.0,0.00026992209802924463
35000.0,0.00026992196840711167
35100.0,0.0002699218408148951
35200.0,0.00026992171522078343
35300.0,0.0002699215915935043
35400.0,0.00026992146990226814
35500.0,0.0002699213501167659
35600.0,0.00026992123220714653
35700.0,0.00026992111614404556
35800.0,0.0002699210018985304
35900.0,0.0002699208894421284
36000.0,0.0002699207787468198
36100.0,0.0002699206697850262
36200.0,0.00026992056252960074
36300.0,0.0002699204569538206
36400.0,0.00026992035303138125
36500.0,0.0002699202507363905
36600.0,0.0002699201500433611
36700.0,0.0002699200509271966
36800.0,0.000269919953363207
36900.0,0.00026991985732706793
37000.0,0.0002699197627948669
37100.0,0.00026991966974306095
37200.0,0.00026991957814847476
37300.0,0.00026991948798828344
37400.0,0.0002699193992400332
37500.0,0.00026991931188160065
37600.0,0.00026991922589121494
37700.0,0.0002699191412474514
37800.0,0.0002699190579292223
37900.0,0.00026991897591576916
38000.0,0.00026991889518665865
38100.0,0.0002699188157217774
38200.0,0.00026991873750132733
38300.0,0.0002699186605058202
38400.0,0.00026991858471607256
38500.0,0.00026991851011320196
38600.0,0.00026991843667862123
38700.0,0.0002699183643940344
38800.0,0.00026991829324143256
38900.0,0.0002699182232030887
39000.0,0.00026991815426155244
39100.0,0.0002699180863996474
39200.0,0.00026991801960046666
39300.0,0.0002699179538473676
39400.0,0.00026991788912396835
39500.0,0.0002699178254141433
39600.0,0.00026991776270201916
39700.0,0.0002699177009719723
39800.0,0.0002699176402086227
39900.0,0.00026991758039683156
40000.0,0.00026991752152169735
40100.0,0.00026991746356855187
40200.0,0.00026991740652295603
40300.0,0.0002699173503706976
40400.0,0.0002699172950977873
40500.0,0.00026991724069045395
40600.0,0.00026991718713514196
40700.0,0.0002699171344185086
40800.0,0.00026991708252741556
40900.0,0.00026991703144893666
41000.0,0.0002699169811703379
41100.0,0.00026991693167910066
41200.0,0.0002699168829628998
41300.0,0.0002699168350096026
41400.0,0.00026991678780725913
41500.0,0.00026991674134411406
41600.0,0.00026991669560858563
41700.0,0.0002699166505892764
41800.0,0.0002699166062749698
41900.0,0.0002699165626546258
42000.0,0.00026991651971737713
42100.0,0.0002699164774525266
42200.0,0.0002699164358495439
42300.0,0.0002699163948980641
42400.0,0.0002699163545878848
42500.0,0.00026991631490896336
42600.0,0.0002699162758514142
42700.0,0.000269916237405506
42800.0,0.00026991619956166036
42900.0,0.0002699161623104494
43000.0,0.0002699161256425926
43100.0,0.000269916089548954
43200.0,0.000269916054020541
43300.0,0.0002699160190485028
43400.0,0.00026991598462412645
43500.0,0.00026991595073883523
43600.0,0.00026991591738418714
43700.0,0.00026991588455187225
43800.0,0.00026991585223371054
43900.0,0.0002699158204216506
44000.0,0.00026991578897153607
44100.0,0.00026991573459737606
44200.0,0.0002699156651785077
44300.0,0.0002699155869650756
44400.0,0.00026991550431618627
44500.0,0.0002699154188751033
44600.0,0.0002699153324293587
44700.0,0.0002699152460138096
44800.0,0.0002699151602818842
44900.0,0.00026991507561243815
45000.0,0.0002699149921132474
45100.0,0.000269914909775194
45200.0,0.0002699148285537504
45300.0,0.00026991474853064096
45400.0,0.0002699146697336102
45500.0,0.00026991459230504903
45600.0,0.0002699145161428798
45700.0,0.00026991444115677767
45800.0,0.00026991436732014983
45900.0,0.00026991429454576956
46000.0,0.0002699142228603592
46100.0,0.0002699141522840176
46200.0,0.00026991408281181145
46300.0,0.0002699140144289672
46400.0,0.00026991394711844106
46500.0,0.00026991388086319206
46600.0,0.0002699138156467707
46700.0,0.0002699137514524791
46800.0,0.0002699136882658509
46900.0,0.00026991362607070503
47000.0,0.00026991356485056426
47100.0,0.00026991350459013057
47200.0,0.00026991344527271696
47300.0,0.0002699133868845834
47400.0,0.0002699133294113674
47500.0,0.0002699132728402973
47600.0,0.0002699132171569137
47700.0,0.00026991316234645224
47800.0,0.0002699131083952117
47900.0,0.0002699130552882539
48000.0,0.00026991300301328004
48100.0,0.00026991295155743184
48200.0,0.0002699129009092749
48300.0,0.0002699128510558639
48400.0,0.0002699128019839808
48500.0,0.0002699127536813583
48600.0,0.000269912706134622
48700.0,0.0002699126593327611
48800.0,0.00026991261326426367
48900.0,0.00026991256791889266
49000.0,0.00026991252328505827
49100.0,0.0002699124793509258
49200.0,0.00026991243610551317
49300.0,0.0002699123935368457
49400.0,0.0002699123516350661
49500.0,0.0002699123103898675
49600.0,0.0002699122697920842
49700.0,0.00026991222983134
49800.0,0.0002699121904970397
49900.0,0.0002699121517793504
50000.0,0.0002699121136675519
50100.0,0.00026991207615281835
50200.0,0.00026991203922592207
50300.0,0.00026991200287865757
50400.0,0.00026991196710173497
50500.0,0.0002699119318856678
50600.0,0.00026991189722165305
50700.0,0.0002699118631000927
50800.0,0.00026991182951308524
50900.0,0.00026991179645236897
51000.0,0.0002699117639105977
51100.0,0.00026991173187945424
51200.0,0.00026991170035044535
51300.0,0.00026991166931568963
51400.0,0.00026991163876659416
51500.0,0.0002699116086959918
51600.0,0.00026991157909665275
51700.0,0.00026991154996128036
51800.0,0.0002699115212827114
51900.0,0.00026991149305361883
52000.0,0.000269911465267642
52100.0,0.00026991143791766243
52200.0,0.00026991141099643254
52300.0,0.0002699113844972252
52400.0,0.0002699113584127029
52500.0,0.00026991133273674496
52600.0,0.0002699113074631774
52700.0,0.0002699112825857704
52800.0,0.0002699112580984073
52900.0,0.0002699112339948317
53000.0,0.0002699112102696122
53100.0,0.0002699111869166716
53200.0,0.00026991116392982085
53300.0,0.00026991114130331693
53400.0,0.0002699111190308936
53500.0,0.0002699110971073252
53600.0,0.0002699110755273397
53700.0,0.0002699110542856177
53800.0,0.00026991103337693653
53900.0,0.00026991101279595495
54000.0,0.00026991099253803515
54100.0,0.0002699109725979871
54200.0,0.0002699109529705272
54300.0,0.000269910933650751
54400.0,0.0002699109146333087
54500.0,0.0002699108959137377
54600.0,0.0002699108774875374
54700.0,0.0002699108593501649
54800.0,0.00026991084149716144
54900.0,0.0002699108239239654
55000.0,0.00026991080662661755
55100.0,0.0002699107896006868
55200.0,0.0002699107728416609
55300.0,0.00026991075634535256
55400.0,0.0002699107401071935
55500.0,0.0002699107241233736
55600.0,0.00026991070839004963
55700.0,0.00026991069290334326
55800.0,0.00026991067765944673
55900.0,0.0002699106626544656
56000.0,0.00026991064788501885
56100.0,0.0002699106333473228
56200.0,0.00026991061903752545
56300.0,0.0002699106049520507
56400.0,0.000269910591086998
56500.0,0.0002699105774391142
56600.0,0.00026991056400511783
56700.0,0.00026991055078169716
56800.0,0.0002699105377656019
56900.0,0.00026991052495350595
57000.0,0.0002699105123425222
57100.0,0.00026991049992942023
57200.0,0.0002699104877109108
57300.0,0.0002699104756839405
57400.0,0.0002699104638451787
57500.0,0.0002699104521918482
57600.0,0.0002699104407211464
57700.0,0.00026991042943024646
57800.0,0.000269910418316372
57900.0,0.0002699104073766834
58000.0,0.0002699103966087155
58100.0,0.00026991038600971003
58200.0,0.0002699103755768589
58300.0,0.00026991036530755466
58400.0,0.0002699103551989533
58500.0,0.00026991034524868386
58600.0,0.00026991033545435347
58700.0,0.00026991032581354747
58800.0,0.0002699103163238953
58900.0,0.0002699103069829729
59000.0,0.00026991029778867566
59100.0,0.0002699102887386478
59200.0,0.0002699102798304918
59300.0,0.0002699102710619814
59400.0,0.0002699102624306884
59500.0,0.0002699102539345875
59600.0,0.00026991024557163605
59700.0,0.0002699102373397724
59800.0,0.00026991022923697255
59900.0,0.0002699102212611665
60000.0,0.00026991021341055723
60100.0,0.0002699102056831332
60200.0,0.00026991019807684697
60300.0,0.0002699101905897985
60400.0,0.0002699101832199138
60500.0,0.0002699101759654637
60600.0,0.00026991016882470394
60700.0,0.00026991016179587444
60800.0,0.0002699101548772473
60900.0,0.0002699101480670542
61000.0,0.0002699101413637612
61100.0,0.00026991013476565057
61200.0,0.00026991012827097435
61300.0,0.0002699101218781098
61400.0,0.00026991011558528656
61500.0,0.00026991010939102813
61600.0,0.00026991010329384483
61700.0,0.0002699100972922338
61800.0,0.00026991009138471934
61900.0,0.0002699100855697922
62000.0,0.00026991007984614196
62100.0,0.0002699100742123029
62200.0,0.00026991006866678205
62300.0,0.00026991006320819356
62400.0,0.0002699100578350257
62500.0,0.0002699100525460179
62600.0,0.0002699100473398986
62700.0,0.0002699100422153844
62800.0,0.0002699100371740194
62900.0,0.0002699100322104241
63000.0,0.00026991002734355255
63100.0,0.0002699100225556129
63200.0,0.0002699100178428268
63300.0,0.0002699100132036243
63400.0,0.00026991000863679527
63500.0,0.00026991000414120154
63600.0,0.0002699099997157313
63700.0,0.00026990999535929003
63800.0,0.0002699099910708012
63900.0,0.0002699099868492054
64000.0,0.0002699099826934585
64100.0,0.00026990997860253324
64200.0,0.00026990997457541915
64300.0,0.0002699099706111203
64400.0,0.0002699099667086576
64500.0,0.00026990996286706633
64600.0,0.0002699099590853971
64700.0,0.00026990995536271475
64800.0,0.0002699099516980994
64900.0,0.0002699099480906456
65000.0,0.00026990994453946106
65100.0,0.0002699099410436687
65200.0,0.0002699099376024043
65300.0,0.0002699099342148172
65400.0,0.0002699099308800705
65500.0,0.0002699099275973397
65600.0,0.0002699099243658134
65700.0,0.0002699099211846932
65800.0,0.0002699099180531928
65900.0,0.00026990991497053774
