M.D_b.TA Time [a],M.D_b.TA TA [mol/kg]
0.0,0.002399
100.0,0.0023992870619176875
200.0,0.0023994046284117757
300.0,0.0023995222904193035
400.0,0.002399644276504971
500.0,0.002399764655890474
600.0,0.002399879308251458
700.0,0.0023999890489107487
800.0,0.0024000920668359065
900.0,0.0024001897124684944
1000.0,0.0024002796351229694
1100.0,0.0024003651248043047
1200.0,0.002400443899144244
1300.0,0.002400517907328046
1400.0,0.002400587567623679
1500.0,0.002400654085817882
1600.0,0.002400716871982712
1700.0,0.002400774297722014
1800.0,0.0024008285878776613
1900.0,0.0024008800699210154
2000.0,0.0024009279897066337
2100.0,0.002400973133693606
2200.0,0.002401017277121203
2300.0,0.002401060857979901
2400.0,0.0024011038091636054
2500.0,0.0024011460610852786
2600.0,0.0024011876712798814
2700.0,0.0024012287467223663
2800.0,0.002401269183746552
2900.0,0.002401309033287717
3000.0,0.002401348249363608
3100.0,0.0024013868639409836
3200.0,0.0024014248658567054
3300.0,0.0024014623246312867
3400.0,0.002401499200541944
3500.0,0.0024015355316700437
3600.0,0.002401571346193314
3700.0,0.002401606587388707
3800.0,0.0024016412406265685
3900.0,0.002401675345249518
4000.0,0.002401708990511816
4100.0,0.0024017421334197758
4200.0,0.00240177479622182
4300.0,0.0024018069626911944
4400.0,0.00240183861190672
4500.0,0.002401869796033264
4600.0,0.002401900528859191
4700.0,0.0024019307812906576
4800.0,0.0024019606275061463
4900.0,0.002401989863068416
5000.0,0.0024020186434118825
5100.0,0.002402047128269297
5200.0,0.002402075108666384
5300.0,0.0024021026412577454
5400.0,0.0024021298573588573
5500.0,0.00240215665647474
5600.0,0.002402183065970317
5700.0,0.0024022090624570584
5800.0,0.002402234673654212
5900.0,0.002402259872888148
6000.0,0.0024022846765925643
6100.0,0.002402309170660466
6200.0,0.002402333269394099
6300.0,0.002402356987806909
6400.0,0.002402380384505425
6500.0,0.0024024033206037163
6600.0,0.002402425921043146
6700.0,0.0024024481864445167
6800.0,0.002402470191484861
6900.0,0.002402491843758018
7000.0,0.0024025131880625154
7100.0,0.0024025342088814
7200.0,0.0024025549001256957
7300.0,0.0024025752885774836
7400.0,0.002402595373563449
7500.0,0.0024026151066691387
7600.0,0.0024026345811183868
7700.0,0.002402653721659808
7800.0,0.0024026725791723514
7900.0,0.002402691084799374
8000.0,0.0024027093584200465
8100.0,0.0024027274208236354
8200.0,0.002402745189601847
8300.0,0.0024027626326086067
8400.0,0.0024027798425977098
8500.0,0.0024027968233222554
8600.0,0.002402813582077425
8700.0,0.0024028300474076324
8800.0,0.0024028462705611322
8900.0,0.0024028622472846853
9000.0,0.002402877975765501
9100.0,0.0024028934847467173
9200.0,0.0024029087544677257
9300.0,0.002402923808724485
9400.0,0.00240293863438494
9500.0,0.0024029532069458643
9600.0,0.002402967543942909
9700.0,0.0024029817015215798
9800.0,0.0024029956493262735
9900.0,0.0024030094063429708
10000.0,0.0024030229381766014
10100.0,0.0024030362171444967
10200.0,0.0024030492825855235
10300.0,0.0024030622416996343
10400.0,0.002403075008079266
10500.0,0.002403087564120294
10600.0,0.0024030998918758957
10700.0,0.002403112016968291
10800.0,0.002403123950597431
10900.0,0.00240313572624907
11000.0,0.0024031473963535346
11100.0,0.0024031588641007066
11200.0,0.0024031701348893185
11300.0,0.0024031812244407476
11400.0,0.002403192139716052
11500.0,0.0024032028842466643
11600.0,0.002403213460718586
11700.0,0.002403223935204115
11800.0,0.002403234210261168
11900.0,0.002403244313516723
12000.0,0.0024032542878571843
12100.0,0.0024032641200954605
12200.0,0.002403273802495412
12300.0,0.002403283333941072
12400.0,0.0024032927141182997
12500.0,0.002403301899142789
12600.0,0.0024033110194635883
12700.0,0.002403320013426461
12800.0,0.002403328881009263
12900.0,0.0024033376142927145
13000.0,0.002403346211638271
13100.0,0.002403354674290177
13200.0,0.0024033629861477316
13300.0,0.002403371124819301
13400.0,0.0024033791226392522
13500.0,0.0024033869922976884
13600.0,0.0024033948459743315
13700.0,0.0024034025690096747
13800.0,0.0024034101901704895
13900.0,0.002403417689347995
14000.0,0.0024034250908457374
14100.0,0.002403432360557599
14200.0,0.002403439476585519
14300.0,0.0024034464688739814
14400.0,0.002403453349522536
14500.0,0.002403460122589357
14600.0,0.0024034667899206926
14700.0,0.0024034733634576626
14800.0,0.0024034799492556116
14900.0,0.002403486419023101
15000.0,0.002403492785714782
15100.0,0.002403499069465224
15200.0,0.0024035052160567586
15300.0,0.0024035112480220093
15400.0,0.0024035171802981254
15500.0,0.0024035230188923966
15600.0,0.0024035287661956675
15700.0,0.0024035344236647818
15800.0,0.0024035399926254325
15900.0,0.0024035454744164094
16000.0,0.00240355087038531
16100.0,0.0024035561818291826
16200.0,0.002403561497447188
16300.0,0.0024035667412151177
16400.0,0.002403571851920826
16500.0,0.002403576876069312
16600.0,0.002403581828773456
16700.0,0.002403586698851281
16800.0,0.002403591507289473
16900.0,0.0024035962460318265
17000.0,0.0024036009119066033
17100.0,0.002403605504823328
17200.0,0.0024036100257350626
17300.0,0.0024036144757978986
17400.0,0.0024036188561543915
17500.0,0.002403623167862797
17600.0,0.002403627412083179
17700.0,0.002403631589736271
17800.0,0.0024036356965347005
17900.0,0.002403639693891429
18000.0,0.002403643636055184
18100.0,0.0024036476125003296
18200.0,0.00240365151861986
18300.0,0.0024036553681819894
18400.0,0.0024036591636307637
18500.0,0.002403662906970348
18600.0,0.002403666593766414
18700.0,0.0024036702231198686
18800.0,0.002403673795565753
18900.0,0.00240367731199298
19000.0,0.0024036807733147144
19100.0,0.0024036841804122963
19200.0,0.002403687534110896
19300.0,0.0024036908352538656
19400.0,0.0024036940846212723
19500.0,0.002403697283069275
19600.0,0.002403700431420011
19700.0,0.0024037035304615745
19800.0,0.002403706550280001
19900.0,0.0024037094847102537
20000.0,0.0024037123616188366
20100.0,0.002403715193791907
20200.0,0.002403717984007537
20300.0,0.002403720731490197
20400.0,0.0024037234362086564
20500.0,0.0024037260986204236
20600.0,0.0024037287779919837
20700.0,0.0024037314855402375
20800.0,0.002403734150162262
20900.0,0.002403736773519668
21000.0,0.002403739361003648
21100.0,0.0024037419055180586
21200.0,0.002403744417443903
21300.0,0.0024037468924692504
21400.0,0.0024037493292137727
21500.0,0.0024037517277813916
21600.0,0.0024037540887191923
21700.0,0.0024037564126412666
21800.0,0.0024037587001450827
21900.0,0.002403760951773652
22000.0,0.00240376316814636
22100.0,0.002403765349739191
22200.0,0.0024037674971262367
22300.0,0.0024037696108664777
22400.0,0.0024037716914937918
22500.0,0.002403773739525471
22600.0,0.002403775745098477
22700.0,0.0024037776730249064
22800.0,0.0024037795505748114
22900.0,0.0024037813972813643
23000.0,0.0024037832159090064
23100.0,0.002403785006621278
23200.0,0.002403786769503732
23300.0,0.0024037885048392217
23400.0,0.0024037902130132367
23500.0,0.0024037918944422717
23600.0,0.002403793549545348
23700.0,0.0024037951787357218
23800.0,0.0024037967824195234
23900.0,0.002403798360972499
24000.0,0.0024037999148267633
24100.0,0.0024038014443156564
24200.0,0.002403802949841192
24300.0,0.0024038044317947413
24400.0,0.0024038058905500427
24500.0,0.0024038073264692197
24600.0,0.002403808739908268
24700.0,0.002403810131218645
24800.0,0.0024038115007468967
24900.0,0.002403812880375706
25000.0,0.002403814341663217
25100.0,0.0024038157800597
25200.0,0.002403817196021142
25300.0,0.002403818589864382
25400.0,0.0024038199619468162
25500.0,0.0024038213150549977
25600.0,0.0024038226466776935
25700.0,0.0024038239608032493
25800.0,0.002403825255354293
25900.0,0.0024038265297892545
26000.0,0.0024038277842349572
26100.0,0.0024038290189957335
26200.0,0.0024038302343946535
26300.0,0.0024038314307433944
26400.0,0.0024038326083244458
26500.0,0.0024038337674588007
26600.0,0.0024038349084003624
26700.0,0.0024038360314513345
26800.0,0.002403837136902856
26900.0,0.002403838225032992
27000.0,0.002403839296112045
27100.0,0.002403840350406202
27200.0,0.0024038413881782785
27300.0,0.002403842409687318
27400.0,0.002403843415188281
27500.0,0.0024038443865535834
27600.0,0.002403845298152618
27700.0,0.0024038461804732594
27800.0,0.002403847048602312
27900.0,0.002403847902571503
28000.0,0.002403848742920176
28100.0,0.0024038495687250124
28200.0,0.0024038503814391137
28300.0,0.002403851182899142
28400.0,0.002403851971642208
28500.0,0.0024038527500326633
28600.0,0.0024038535168402595
28700.0,0.002403854271743149
28800.0,0.002403855014815411
28900.0,0.002403855746236571
29000.0,0.0024038564661974897
29100.0,0.0024038571748824125
29200.0,0.002403857872458379
29300.0,0.0024038585591152233
29400.0,0.0024038592350031206
29500.0,0.00240385990030082
29600.0,0.00240386055518053
29700.0,0.00240386119980673
29800.0,0.0024038618343393114
29900.0,0.002403862458935732
30000.0,0.0024038630737514585
30100.0,0.0024038636789397265
30200.0,0.002403864274651358
30300.0,0.002403864861034756
30400.0,0.0024038654382359725
30500.0,0.002403866006398777
30600.0,0.002403866565664692
30700.0,0.0024038671161730283
30800.0,0.002403867658061005
30900.0,0.0024038681914634636
31000.0,0.002403868716513454
31100.0,0.002403869233341682
31200.0,0.002403869742076823
31300.0,0.002403870242845512
31400.0,0.002403870735772622
31500.0,0.002403871220980801
31600.0,0.002403871698590984
31700.0,0.002403872168722264
31800.0,0.0024038726314916346
31900.0,0.0024038730870145253
32000.0,0.002403873535404332
32100.0,0.0024038739767726935
32200.0,0.0024038744112294787
32300.0,0.0024038748388830263
32400.0,0.0024038752598397467
32500.0,0.0024038756742045613
32600.0,0.0024038760820807954
32700.0,0.002403876483569951
32800.0,0.0024038768787721754
32900.0,0.0024038772677858486
33000.0,0.0024038776507078288
33100.0,0.0024038780276334983
33200.0,0.0024038783986567633
33300.0,0.0024038787638700544
33400.0,0.002403879123364347
33500.0,0.002403879477229191
33600.0,0.002403879825552736
33700.0,0.0024038801684217537
33800.0,0.0024038805059216
33900.0,0.002403880838136432
34000.0,0.002403881165148907
34100.0,0.0024038814870405347
34200.0,0.002403881803891585
34300.0,0.0024038821157809117
34400.0,0.002403882422786313
34500.0,0.002403882724984216
34600.0,0.0024038830224498643
34700.0,0.002403883315257309
34800.0,0.0024038836034795683
34900.0,0.002403883887188362
35000.0,0.002403884166454407
35100.0,0.0024038844413472953
35200.0,0.002403884711935511
35300.0,0.0024038849782864594
35400.0,0.0024038852404664893
35500.0,0.002403885498540914
35600.0,0.002403885752574023
35700.0,0.0024038860026291005
35800.0,0.0024038862487684395
35900.0,0.002403886491053357
36000.0,0.0024038867295442094
36100.0,0.0024038869643004087
36200.0,0.0024038871953804375
36300.0,0.002403887422841898
36400.0,0.002403887646741397
36500.0,0.0024038878671347867
36600.0,0.002403888084076938
36700.0,0.002403888297621867
36800.0,0.002403888507822734
36900.0,0.002403888714731959
37000.0,0.0024038889184010296
37100.0,0.0024038891188807123
37200.0,0.002403889316221001
37300.0,0.0024038895104710085
37400.0,0.00240388970167919
37500.0,0.0024038898898931485
37600.0,0.002403890075159748
37700.0,0.00240389025752511
37800.0,0.0024038904370347123
37900.0,0.0024038906137332262
38000.0,0.002403890787664695
38100.0,0.0024038909588724637
38200.0,0.0024038911273991867
38300.0,0.0024038912932868458
38400.0,0.002403891456576766
38500.0,0.002403891617309652
38600.0,0.002403891775525506
38700.0,0.0024038919312637953
38800.0,0.0024038920845632942
38900.0,0.002403892235462174
39000.0,0.0024038923839980004
39100.0,0.0024038925302078155
39200.0,0.0024038926741280033
39300.0,0.0024038928157944376
39400.0,0.002403892955242447
39500.0,0.0024038930925067365
39600.0,0.0024038932276215477
39700.0,0.0024038933606205185
39800.0,0.002403893491536765
39900.0,0.002403893620402879
40000.0,0.0024038937472509983
40100.0,0.0024038938721126888
40200.0,0.002403893995019073
40300.0,0.002403894116000782
40400.0,0.0024038942350879566
40500.0,0.002403894352310263
40600.0,0.0024038944676969035
40700.0,0.002403894581276624
40800.0,0.0024038946930777187
40900.0,0.0024038948031280417
41000.0,0.002403894911455009
41100.0,0.0024038950180856073
41200.0,0.002403895123046401
41300.0,0.0024038952263635387
41400.0,0.002403895328062759
41500.0,0.002403895428169398
41600.0,0.002403895526708395
41700.0,0.002403895623704298
41800.0,0.002403895719181272
41900.0,0.002403895813163102
42000.0,0.002403895905673202
42100.0,0.0024038959967346185
42200.0,0.0024038960863700374
42300.0,0.002403896174601789
42400.0,0.0024038962614518545
42500.0,0.00240389634694187
42600.0,0.0024038964310931343
42700.0,0.002403896513926611
42800.0,0.002403896595462936
42900.0,0.002403896675722423
43000.0,0.0024038967547250663
43100.0,0.002403896832490561
43200.0,0.0024038969090382596
43300.0,0.0024038969843872588
43400.0,0.0024038970585563185
43500.0,0.002403897131563907
43600.0,0.002403897203428199
43700.0,0.002403897274167118
43800.0,0.0024038973437982662
43900.0,0.002403897412339001
44000.0,0.002403897479806438
44100.0,0.0024038976743762505
44200.0,0.002403897878866813
44300.0,0.002403898080020304
44400.0,0.0024038982779634463
44500.0,0.002403898472784112
44600.0,0.0024038986645467508
44700.0,0.0024038988533070147
44800.0,0.0024038990391163453
44900.0,0.002403899222023524
45000.0,0.0024038994020754477
45100.0,0.0024038995795749338
45200.0,0.002403899754387805
45300.0,0.0024038999268570014
45400.0,0.0024039000964977213
45500.0,0.0024039002632048304
45600.0,0.002403900427060102
45700.0,0.002403900588320182
45800.0,0.0024039007472893806
45900.0,0.0024039009038517006
46000.0,0.0024039010583153933
46100.0,0.002403901210461593
46200.0,0.0024039013602391427
46300.0,0.002403901507666629
46400.0,0.0024039016527803918
46500.0,0.0024039017956183155
46600.0,0.0024039019362169355
46700.0,0.0024039020746097284
46800.0,0.0024039022108333897
46900.0,0.002403902344918691
47000.0,0.0024039024769011534
47100.0,0.002403902606816707
47200.0,0.0024039027346963453
47300.0,0.002403902860573994
47400.0,0.0024039029844776113
47500.0,0.0024039031064391567
47600.0,0.002403903226486195
47700.0,0.0024039033446505496
47800.0,0.00240390346096441
47900.0,0.002403903575455515
48000.0,0.0024039036881542326
48100.0,0.0024039037990855917
48200.0,0.002403903908278205
48300.0,0.00240390401575675
48400.0,0.00240390412154972
48500.0,0.002403904225685934
48600.0,0.002403904328190227
48700.0,0.002403904429089787
48800.0,0.0024039045284070235
48900.0,0.0024039046261675524
49000.0,0.0024039047223934685
49100.0,0.0024039048171102823
49200.0,0.0024039049103437952
49300.0,0.0024039050021162417
49400.0,0.002403905092451964
49500.0,0.0024039051813710254
49600.0,0.0024039052688963596
49700.0,0.0024039053550477486
49800.0,0.0024039054398480317
49900.0,0.0024039055233203094
50000.0,0.002403905605484488
50100.0,0.0024039056863623615
50200.0,0.0024039057659718923
50300.0,0.002403905844333614
50400.0,0.0024039059214652375
50500.0,0.0024039059973872093
50600.0,0.002403906072120213
50700.0,0.0024039061456820705
50800.0,0.0024039062180922946
50900.0,0.0024039062893669656
51000.0,0.0024039063595244687
51100.0,0.002403906428580659
51200.0,0.002403906496553845
51300.0,0.002403906563462542
51400.0,0.0024039066293227076
51500.0,0.002403906694151811
51600.0,0.0024039067579642503
51700.0,0.0024039068207764845
51800.0,0.0024039068826027096
51900.0,0.002403906943459316
52000.0,0.0024039070033628823
52100.0,0.0024039070623276945
52200.0,0.0024039071203693927
52300.0,0.0024039071775008676
52400.0,0.002403907233736855
52500.0,0.002403907289090065
52600.0,0.0024039073435751725
52700.0,0.0024039073972070193
52800.0,0.002403907449998396
52900.0,0.002403907501963306
53000.0,0.0024039075531132894
53100.0,0.0024039076034615397
53200.0,0.002403907653019436
53300.0,0.0024039077018001174
53400.0,0.002403907749816871
53500.0,0.002403907797081149
53600.0,0.002403907843605489
53700.0,0.002403907889400222
53800.0,0.0024039079344771613
53900.0,0.0024039079788464937
54000.0,0.0024039080225199826
54100.0,0.002403908065509525
54200.0,0.0024039081078253734
54300.0,0.002403908149478752
54400.0,0.0024039081904789115
54500.0,0.0024039082308364274
54600.0,0.002403908270560421
54700.0,0.0024039083096614234
54800.0,0.002403908348150086
54900.0,0.0024039083860355887
55000.0,0.0024039084233279796
55100.0,0.0024039084600355415
55200.0,0.002403908496167743
55300.0,0.0024039085317327496
55400.0,0.0024039085667399897
55500.0,0.002403908601199001
55600.0,0.002403908635118
55700.0,0.0024039086685059847
55800.0,0.0024039087013703704
55900.0,0.0024039087337196334
56000.0,0.002403908765561085
56100.0,0.0024039087969031673
56200.0,0.002403908827754418
56300.0,0.0024039088581221946
56400.0,0.0024039088880145523
56500.0,0.0024039089174381295
56600.0,0.002403908946400516
56700.0,0.002403908974908258
56800.0,0.002403909002968912
56900.0,0.002403909030590124
57000.0,0.0024039090577784796
57100.0,0.002403909084541191
57200.0,0.0024039091108842025
57300.0,0.0024039091368143087
57400.0,0.0024039091623373693
57500.0,0.0024039091874601516
57600.0,0.002403909212189499
57700.0,0.00240390923653131
57800.0,0.0024039092604920395
57900.0,0.0024039092840770107
58000.0,0.0024039093072923063
58100.0,0.0024039093301431733
58200.0,0.00240390935263567
58300.0,0.0024039093747759226
58400.0,0.002403909396569213
58500.0,0.0024039094180213203
58600.0,0.0024039094391370103
58700.0,0.0024039094599217284
58800.0,0.0024039094803801724
58900.0,0.002403909500517766
59000.0,0.002403909520339995
59100.0,0.0024039095398515876
59200.0,0.002403909559057718
59300.0,0.002403909577962653
59400.0,0.0024039095965712677
59500.0,0.0024039096148877684
59600.0,0.0024039096329170105
59700.0,0.0024039096506639065
59800.0,0.0024039096681326877
59900.0,0.0024039096853279884
60000.0,0.0024039097022536273
60100.0,0.0024039097189139705
60200.0,0.0024039097353127834
60300.0,0.0024039097514544127
60400.0,0.0024039097673432563
60500.0,0.0024039097829831033
60600.0,0.0024039097983781024
60700.0,0.0024039098135316727
60800.0,0.002403909828447723
60900.0,0.0024039098431296235
61000.0,0.0024039098575812682
61100.0,0.0024039098718065923
61200.0,0.0024039098858089896
61300.0,0.0024039098995921734
61400.0,0.0024039099131592054
61500.0,0.0024039099265135847
61600.0,0.00240390993965833
61700.0,0.002403909952596926
61800.0,0.0024039099653328966
61900.0,0.00240390997786928
62000.0,0.0024039099902094015
62100.0,0.0024039100023560017
62200.0,0.002403910014312213
62300.0,0.0024039100260807383
62400.0,0.0024039100376646973
62500.0,0.002403910049067246
62600.0,0.0024039100602911033
62700.0,0.002403910071339247
62800.0,0.00240391008221413
62900.0,0.0024039100929185574
63000.0,0.0024039101034549495
63100.0,0.0024039101138260987
63200.0,0.0024039101240348306
63300.0,0.0024039101340835797
63400.0,0.002403910143975012
63500.0,0.0024039101537113236
63600.0,0.002403910163295026
63700.0,0.0024039101727282852
63800.0,0.002403910182013602
63900.0,0.0024039101911535066
64000.0,0.002403910200150178
64100.0,0.0024039102090060035
64200.0,0.0024039102177229486
64300.0,0.0024039102263032626
64400.0,0.0024039102347488844
64500.0,0.002403910243062053
64600.0,0.002403910251245034
64700.0,0.002403910259299778
64800.0,0.0024039102672284212
64900.0,0.0024039102750327253
65000.0,0.0024039102827147028
65100.0,0.0024039102902760905
65200.0,0.002403910297718892
65300.0,0.002403910305045136
65400.0,0.002403910312256569
65500.0,0.0024039103193551044
65600.0,0.002403910326342318
65700.0,0.0024039103332200128
65800.0,0.002403910339989743
65900.0,0.0024039103466533024
66000.0,0.002403910353212508
66100.0,0.0024039103596689227
66200.0,0.00240391036602426
66300.0,0.002403910372279931
66400.0,0.0024039103784375486
66500.0,0.002403910384498505
66600.0,0.0024039103904644078
66700.0,0.0024039103963368813
66800.0,0.0024039104021173264
66900.0,0.002403910407807276
67000.0,0.0024039104134079945
67100.0,0.0024039104189209257
67200.0,0.002403910424347316
67300.0,0.002403910429688604
67400.0,0.002403910434946245
67500.0,0.002403910440121492
67600.0,0.002403910445215719
67700.0,0.0024039104502300563
67800.0,0.002403910455165798
67900.0,0.002403910460024059
