M.D_b.TA Time [a],M.D_b.TA TA [mol/kg]
0.0,0.0024039107651077
0.08333333333333333,0.0024039107651077003
0.16666666666666666,0.0024039107651077007
0.25,0.0024039107651077016
0.3333333333333333,0.0024039107651077033
0.41666666666666663,0.0024039107651077068
0.5,0.0024039107651077115
0.5833333333333333,0.002403910765107719
0.6666666666666666,0.0024039107651077293
0.75,0.002403910765107744
0.8333333333333333,0.002403910765107764
0.9166666666666666,0.0024039107651077896
1.0,0.0024039107651078226
1.0833333333333333,0.0024039107651078638
1.1666666666666665,0.002403910765107915
1.25,0.002403910765107977
1.3333333333333333,0.002403910765108051
1.4166666666666665,0.0024039107651081396
1.5,0.0024039107651082432
1.5833333333333333,0.002403910765108364
1.6666666666666665,0.002403910765108503
1.75,0.002403910765108662
1.8333333333333333,0.002403910765108843
1.9166666666666665,0.0024039107651090473
2.0,0.002403910765109277
2.083333333333333,0.0024039107651095343
2.1666666666666665,0.00240391076510982
2.25,0.0024039107651101363
2.333333333333333,0.0024039107651104854
2.4166666666666665,0.0024039107651108696
2.5,0.00240391076511129
2.583333333333333,0.0024039107651117487
2.6666666666666665,0.002403910765112248
2.75,0.002403910765112789
2.833333333333333,0.0024039107651133746
2.9166666666666665,0.0024039107651140064
3.0,0.002403910765114686
3.083333333333333,0.0024039107651154163
3.1666666666666665,0.0024039107651161983
3.25,0.002403910765117035
3.333333333333333,0.0024039107651179278
3.4166666666666665,0.002403910765118879
3.5,0.00240391076511989
3.583333333333333,0.002403910765120964
3.6666666666666665,0.002403910765122102
3.75,0.0024039107651233063
3.833333333333333,0.0024039107651245787
3.9166666666666665,0.002403910765125922
4.0,0.0024039107651273373
4.083333333333333,0.0024039107651288275
4.166666666666666,0.0024039107651303935
4.25,0.0024039107651320384
4.333333333333333,0.0024039107651337636
4.416666666666666,0.0024039107651355716
4.5,0.0024039107651374647
4.583333333333333,0.0024039107651394496
4.666666666666666,0.0024039107651415213
4.75,0.0024039107651437058
4.833333333333333,0.0024039107651459874
4.916666666666666,0.002403910765148365
5.0,0.0024039107651508402
5.083333333333333,0.002403910765153416
5.166666666666666,0.002403910765156094
5.25,0.002403910765158875
5.333333333333333,0.002403910765161762
5.416666666666666,0.0024039107651647575
5.5,0.0024039107651678627
5.583333333333333,0.002403910765171079
5.666666666666666,0.0024039107651744095
5.75,0.002403910765177856
5.833333333333333,0.00240391076518142
5.916666666666666,0.0024039107651851036
6.0,0.002403910765188909
6.083333333333333,0.0024039107651928383
6.166666666666666,0.0024039107651968932
6.25,0.0024039107652010757
6.333333333333333,0.0024039107652053873
6.416666666666666,0.002403910765209831
6.5,0.002403910765214408
6.583333333333333,0.0024039107652191203
6.666666666666666,0.0024039107652239697
6.75,0.0024039107652289583
6.833333333333333,0.0024039107652340888
6.916666666666666,0.002403910765239362
7.0,0.0024039107652447803
7.083333333333333,0.002403910765250346
7.166666666666666,0.0024039107652560608
7.25,0.0024039107652619263
7.333333333333333,0.002403910765267945
7.416666666666666,0.002403910765274118
7.5,0.002403910765280448
7.583333333333333,0.0024039107652869367
7.666666666666666,0.002403910765293586
7.75,0.0024039107653003977
7.833333333333333,0.0024039107653073743
7.916666666666666,0.0024039107653145166
8.0,0.0024039107653218276
8.083333333333332,0.0024039107653293086
8.166666666666666,0.002403910765336962
8.25,0.0024039107653447897
8.333333333333332,0.002403910765352793
8.416666666666666,0.002403910765360974
8.5,0.0024039107653693347
8.583333333333332,0.0024039107653778774
8.666666666666666,0.0024039107653866035
8.75,0.0024039107653955148
8.833333333333332,0.002403910765404614
8.916666666666666,0.002403910765413902
9.0,0.0024039107654233813
9.083333333333332,0.002403910765433054
9.166666666666666,0.0024039107654429217
9.25,0.002403910765452986
9.333333333333332,0.0024039107654632496
9.416666666666666,0.0024039107654737135
9.5,0.00240391076548438
9.583333333333332,0.0024039107654952505
9.666666666666666,0.0024039107655063276
9.75,0.002403910765517613
9.833333333333332,0.002403910765529109
9.916666666666666,0.002403910765540816
10.0,0.0024039107655527375
10.083333333333332,0.002403910765564875
10.166666666666666,0.00240391076557723
10.25,0.0024039107655898046
10.333333333333332,0.0024039107656026004
10.416666666666666,0.00240391076561562
10.5,0.0024039107656288645
10.583333333333332,0.002403910765642336
10.666666666666666,0.002403910765656037
10.75,0.0024039107656699684
10.833333333333332,0.002403910765684133
10.916666666666666,0.0024039107656985315
11.0,0.0024039107657131665
11.083333333333332,0.0024039107657280396
11.166666666666666,0.0024039107657431533
11.25,0.0024039107657585095
11.333333333333332,0.002403910765774109
11.416666666666666,0.0024039107657899544
11.5,0.0024039107658060475
11.583333333333332,0.0024039107658223903
11.666666666666666,0.0024039107658389842
11.75,0.002403910765855832
11.833333333333332,0.0024039107658729345
11.916666666666666,0.002403910765890294
12.0,0.002403910765907912
12.083333333333332,0.002403910765925791
12.166666666666666,0.002403910765943933
12.25,0.0024039107659623387
12.333333333333332,0.0024039107659810112
12.416666666666666,0.0024039107659999514
12.5,0.0024039107660191617
12.583333333333332,0.002403910766038644
12.666666666666666,0.0024039107660584
12.75,0.002403910766078431
12.833333333333332,0.00240391076609874
12.916666666666666,0.002403910766119328
13.0,0.002403910766140197
13.083333333333332,0.0024039107661613488
13.166666666666666,0.0024039107661827856
13.25,0.0024039107662045087
13.333333333333332,0.0024039107662265206
13.416666666666666,0.002403910766248823
13.5,0.002403910766271417
13.583333333333332,0.0024039107662943053
13.666666666666666,0.002403910766317489
13.75,0.0024039107663409707
13.833333333333332,0.002403910766364752
13.916666666666666,0.0024039107663888343
14.0,0.0024039107664132198
14.083333333333332,0.00240391076643791
14.166666666666666,0.002403910766462907
14.25,0.002403910766488213
14.333333333333332,0.0024039107665138294
14.416666666666666,0.002403910766539758
14.5,0.0024039107665660008
14.583333333333332,0.00240391076659256
14.666666666666666,0.002403910766619436
14.75,0.002403910766646632
14.833333333333332,0.002403910766674149
14.916666666666666,0.00240391076670199
15.0,0.0024039107667301555
15.083333333333332,0.0024039107667586483
15.166666666666666,0.002403910766787469
15.25,0.0024039107668166206
15.333333333333332,0.002403910766846105
15.416666666666666,0.002403910766875923
15.5,0.002403910766906077
15.583333333333332,0.0024039107669365685
15.666666666666666,0.0024039107669673997
15.75,0.0024039107669985723
15.833333333333332,0.0024039107670300883
15.916666666666666,0.002403910767061949
16.0,0.0024039107670941564
16.083333333333332,0.002403910767126713
16.166666666666664,0.0024039107671595963
16.25,0.0024039107671928487
16.333333333333332,0.002403910767226387
16.416666666666664,0.0024039107672602735
16.5,0.002403910767294502
16.583333333333332,0.0024039107673291707
16.666666666666664,0.002403910767364214
16.75,0.002403910767399598
16.833333333333332,0.0024039107674353644
16.916666666666664,0.0024039107674714262
17.0,0.0024039107675078494
17.083333333333332,0.0024039107675446264
17.166666666666664,0.002403910767581859
17.25,0.0024039107676194797
17.333333333333332,0.0024039107676574523
17.416666666666664,0.0024039107676958214
17.5,0.0024039107677344958
17.583333333333332,0.0024039107677735435
17.666666666666664,0.0024039107678129564
17.75,0.0024039107678528416
17.833333333333332,0.0024039107678931267
17.916666666666664,0.002403910767933776
18.0,0.0024039107679748343
18.083333333333332,0.0024039107680162083
18.166666666666664,0.002403910768057968
18.25,0.002403910768100105
18.333333333333332,0.0024039107681427295
18.416666666666664,0.0024039107681857663
18.5,0.00240391076822918
18.583333333333332,0.002403910768273015
18.666666666666664,0.002403910768317176
18.75,0.0024039107683617345
18.833333333333332,0.002403910768406683
18.916666666666664,0.0024039107684521335
19.0,0.0024039107684980096
19.083333333333332,0.0024039107685442738
19.166666666666664,0.002403910768590973
19.25,0.002403910768638008
19.333333333333332,0.002403910768685452
19.416666666666664,0.002403910768733298
19.5,0.002403910768781661
19.583333333333332,0.0024039107688304633
19.666666666666664,0.0024039107688796644
19.75,0.002403910768929314
19.833333333333332,0.002403910768979309
19.916666666666664,0.0024039107690297257
20.0,0.0024039107690805557
20.083333333333332,0.0024039107691319183
20.166666666666664,0.0024039107691837323
20.25,0.002403910769235957
20.333333333333332,0.002403910769288643
20.416666666666664,0.0024039107693416845
20.5,0.0024039107693951596
20.583333333333332,0.00240391076944906
20.666666666666664,0.0024039107695035078
20.75,0.002403910769558419
20.833333333333332,0.002403910769613754
20.916666666666664,0.002403910769669562
21.0,0.0024039107697257354
21.083333333333332,0.002403910769782355
21.166666666666664,0.0024039107698394105
21.25,0.0024039107698970294
21.333333333333332,0.002403910769955124
21.416666666666664,0.002403910770013653
21.5,0.002403910770072669
21.583333333333332,0.00240391077013206
21.666666666666664,0.0024039107701919085
21.75,0.0024039107702522058
21.833333333333332,0.0024039107703130802
21.916666666666664,0.002403910770374444
22.0,0.0024039107704362534
22.083333333333332,0.002403910770498562
22.166666666666664,0.0024039107705612554
22.25,0.0024039107706244184
22.333333333333332,0.0024039107706880416
22.416666666666664,0.002403910770752257
22.5,0.002403910770816974
22.583333333333332,0.002403910770882148
22.666666666666664,0.0024039107709478338
22.75,0.0024039107710139146
22.833333333333332,0.002403910771080477
22.916666666666664,0.0024039107711475104
23.0,0.0024039107712151516
23.083333333333332,0.0024039107712833063
23.166666666666664,0.00240391077135193
23.25,0.002403910771421078
23.333333333333332,0.0024039107714906305
23.416666666666664,0.0024039107715606764
23.5,0.0024039107716312047
23.583333333333332,0.0024039107717023557
23.666666666666664,0.0024039107717740327
23.75,0.0024039107718461894
23.833333333333332,0.002403910771918883
23.916666666666664,0.002403910771991991
24.0,0.0024039107720656046
24.083333333333332,0.002403910772139712
24.166666666666664,0.002403910772214456
24.25,0.0024039107722897395
24.333333333333332,0.0024039107723655135
24.416666666666664,0.002403910772441837
24.5,0.0024039107725185847
24.583333333333332,0.0024039107725958484
24.666666666666664,0.0024039107726736182
24.75,0.0024039107727520394
24.833333333333332,0.0024039107728310123
24.916666666666664,0.0024039107729104865
25.0,0.002403910772990523
25.083333333333332,0.0024039107730709935
25.166666666666664,0.002403910773151992
25.25,0.0024039107732335076
25.333333333333332,0.0024039107733156892
25.416666666666664,0.0024039107733984343
25.5,0.0024039107734816923
25.583333333333332,0.002403910773565525
25.666666666666664,0.002403910773649801
25.75,0.0024039107737346167
25.833333333333332,0.0024039107738199612
25.916666666666664,0.0024039107739059857
26.0,0.002403910773992586
26.083333333333332,0.002403910774079711
26.166666666666664,0.0024039107741674224
26.25,0.0024039107742555863
26.333333333333332,0.002403910774344302
26.416666666666664,0.0024039107744335576
26.5,0.002403910774523508
26.583333333333332,0.002403910774614046
26.666666666666664,0.0024039107747051195
26.75,0.0024039107747967923
26.833333333333332,0.002403910774888927
26.916666666666664,0.002403910774981624
27.0,0.0024039107750748728
27.083333333333332,0.002403910775168831
27.166666666666664,0.002403910775263389
27.25,0.002403910775358493
27.333333333333332,0.002403910775454209
27.416666666666664,0.0024039107755503965
27.5,0.002403910775647158
27.583333333333332,0.0024039107757444825
27.666666666666664,0.00240391077584253
27.75,0.0024039107759411898
27.833333333333332,0.002403910776040407
27.916666666666664,0.002403910776140247
28.0,0.0024039107762405683
28.083333333333332,0.002403910776341476
28.166666666666664,0.002403910776442957
28.25,0.0024039107765451754
28.333333333333332,0.002403910776648018
28.416666666666664,0.002403910776751429
28.5,0.0024039107768554758
28.583333333333332,0.002403910776960013
28.666666666666664,0.002403910777065147
28.75,0.002403910777170866
28.833333333333332,0.002403910777277337
28.916666666666664,0.002403910777384444
29.0,0.0024039107774921306
29.083333333333332,0.002403910777600465
29.166666666666664,0.0024039107777092984
29.25,0.0024039107778187404
29.333333333333332,0.0024039107779287782
29.416666666666664,0.0024039107780395824
29.5,0.0024039107781510345
29.583333333333332,0.0024039107782630764
29.666666666666664,0.0024039107783757783
29.75,0.0024039107784889894
29.833333333333332,0.0024039107786028202
29.916666666666664,0.0024039107787172578
30.0,0.0024039107788324755
30.083333333333332,0.002403910778948353
30.166666666666664,0.002403910779064831
30.25,0.002403910779181981
30.333333333333332,0.00240391077929965
30.416666666666664,0.0024039107794179494
30.5,0.0024039107795368665
30.583333333333332,0.002403910779656578
30.666666666666664,0.0024039107797769613
30.75,0.0024039107798979557
30.833333333333332,0.002403910780019635
30.916666666666664,0.002403910780141841
31.0,0.0024039107802646892
31.083333333333332,0.002403910780388166
31.166666666666664,0.0024039107805124515
31.25,0.00240391078063742
31.333333333333332,0.002403910780763011
31.416666666666664,0.002403910780889298
31.5,0.002403910781016121
31.583333333333332,0.002403910781143598
31.666666666666664,0.0024039107812717144
31.75,0.0024039107814006525
31.833333333333332,0.0024039107815302867
31.916666666666664,0.002403910781660553
32.0,0.0024039107817915273
32.08333333333333,0.002403910781923047
32.166666666666664,0.002403910782055189
32.25,0.002403910782187994
32.33333333333333,0.0024039107823214776
32.416666666666664,0.0024039107824556432
32.5,0.0024039107825904933
32.58333333333333,0.002403910782726028
32.666666666666664,0.0024039107828622494
32.75,0.002403910782999159
32.83333333333333,0.0024039107831367586
32.916666666666664,0.0024039107832750494
33.0,0.0024039107834140333
33.08333333333333,0.002403910783553712
33.166666666666664,0.0024039107836940866
33.25,0.0024039107838351595
33.33333333333333,0.0024039107839769315
33.416666666666664,0.0024039107841194044
33.5,0.00240391078426258
33.58333333333333,0.0024039107844064603
33.666666666666664,0.002403910784551046
33.75,0.0024039107846963396
33.83333333333333,0.0024039107848423417
33.916666666666664,0.0024039107849890546
34.0,0.0024039107851364797
34.08333333333333,0.002403910785284619
34.166666666666664,0.002403910785433473
34.25,0.0024039107855830444
34.33333333333333,0.0024039107857333343
34.416666666666664,0.002403910785884344
34.5,0.002403910786036076
34.58333333333333,0.0024039107861885314
34.666666666666664,0.002403910786341711
34.75,0.0024039107864956173
34.83333333333333,0.0024039107866502514
34.916666666666664,0.002403910786805616
35.0,0.002403910786961711
35.08333333333333,0.002403910787118539
35.166666666666664,0.0024039107872761024
35.25,0.002403910787434401
35.33333333333333,0.0024039107875934375
35.416666666666664,0.002403910787753213
35.5,0.0024039107879137286
35.58333333333333,0.002403910788074987
35.666666666666664,0.0024039107882369896
35.75,0.0024039107883997374
35.83333333333333,0.002403910788563232
35.916666666666664,0.0024039107887274757
36.0,0.002403910788892469
36.08333333333333,0.0024039107890582146
36.166666666666664,0.0024039107892247133
36.25,0.0024039107893919667
36.33333333333333,0.0024039107895599773
36.416666666666664,0.002403910789728745
36.5,0.0024039107898982726
36.58333333333333,0.0024039107900685613
36.666666666666664,0.002403910790239613
36.75,0.0024039107904114286
36.83333333333333,0.00240391079058401
36.916666666666664,0.0024039107907573593
37.0,0.0024039107909314774
37.08333333333333,0.002403910791106366
37.166666666666664,0.002403910791282027
37.25,0.002403910791458461
37.33333333333333,0.0024039107916356706
37.416666666666664,0.002403910791813657
37.5,0.0024039107921420997
37.58333333333333,0.0024039107941783086
37.666666666666664,0.0024039107969441036
37.75,0.002403910799904168
37.83333333333333,0.0024039108028893834
37.916666666666664,0.0024039108054816965
38.0,0.002403910806342917
38.08333333333333,0.0024039108069474424
38.166666666666664,0.00240391080737782
38.25,0.002403910807690135
38.33333333333333,0.0024039108079224945
38.416666666666664,0.002403910808100792
38.5,0.0024039108082426204
38.58333333333333,0.002403910808359935
38.666666666666664,0.0024039108084608586
38.75,0.002403910808550911
38.83333333333333,0.0024039108086338435
38.916666666666664,0.002403910808712205
39.0,0.0024039108087877273
39.08333333333333,0.002403910808861588
39.166666666666664,0.0024039108089345877
39.25,0.0024039108090072705
39.33333333333333,0.002403910809080007
39.416666666666664,0.002403910809153049
39.5,0.002403910809226568
39.58333333333333,0.0024039108093006816
39.666666666666664,0.0024039108093754694
39.75,0.002403910809450986
39.83333333333333,0.002403910809527269
39.916666666666664,0.002403910809604345
40.0,0.002403910809682232
40.08333333333333,0.002403910809760942
40.166666666666664,0.002403910809840485
40.25,0.002403910809920867
40.33333333333333,0.0024039108100020936
40.416666666666664,0.0024039108100841686
40.5,0.002403910810167094
40.58333333333333,0.0024039108102508733
40.666666666666664,0.0024039108103355083
40.75,0.002403910810421001
40.83333333333333,0.0024039108105073535
40.916666666666664,0.0024039108105945667
41.0,0.002403910810682643
41.08333333333333,0.0024039108107715835
41.166666666666664,0.0024039108108613897
41.25,0.0024039108109520633
41.33333333333333,0.0024039108110436055
41.416666666666664,0.0024039108111360173
41.5,0.0024039108112293007
41.58333333333333,0.002403910811323457
41.666666666666664,0.002403910811418488
41.75,0.0024039108115143947
41.83333333333333,0.002403910811611179
41.916666666666664,0.0024039108117088416
42.0,0.002403910811807384
42.08333333333333,0.002403910811906808
42.166666666666664,0.0024039108120071143
42.25,0.002403910812108306
42.33333333333333,0.0024039108122103823
42.416666666666664,0.0024039108123133463
42.5,0.002403910812417199
42.58333333333333,0.0024039108125219416
42.666666666666664,0.002403910812627576
42.75,0.0024039108127341027
42.83333333333333,0.0024039108128415237
42.916666666666664,0.0024039108129498407
43.0,0.002403910813059055
43.08333333333333,0.0024039108131691674
43.166666666666664,0.0024039108132801793
43.25,0.0024039108133920933
43.33333333333333,0.0024039108135049097
43.416666666666664,0.0024039108136186304
43.5,0.002403910813733257
43.58333333333333,0.00240391081384879
43.666666666666664,0.0024039108139652316
43.75,0.002403910814082583
43.83333333333333,0.002403910814200846
43.916666666666664,0.0024039108143200216
44.0,0.002403910814440111
44.08333333333333,0.002403910814561116
44.166666666666664,0.002403910814683038
44.25,0.0024039108148058786
44.33333333333333,0.0024039108149296385
44.416666666666664,0.0024039108150543196
44.5,0.0024039108151799236
44.58333333333333,0.0024039108153064517
44.666666666666664,0.002403910815433905
44.75,0.0024039108155622852
44.83333333333333,0.0024039108156915933
44.916666666666664,0.0024039108158218315
45.0,0.0024039108159530005
45.08333333333333,0.002403910816085102
45.166666666666664,0.0024039108162181378
45.25,0.0024039108163521083
45.33333333333333,0.0024039108164870156
45.416666666666664,0.0024039108166228613
45.5,0.0024039108167596464
45.58333333333333,0.0024039108168973727
45.666666666666664,0.002403910817036041
45.75,0.002403910817175653
45.83333333333333,0.00240391081731621
45.916666666666664,0.002403910817457714
46.0,0.0024039108176001655
46.08333333333333,0.0024039108177435664
46.166666666666664,0.0024039108178879184
46.25,0.0024039108180332223
46.33333333333333,0.00240391081817948
46.416666666666664,0.0024039108183266924
