M.D_b.pH Time [a],M.D_b.pH pH [mol/kg]
0.0,7.910226278637105
100.0,7.90879764610956
200.0,7.9080610691660285
300.0,7.907733263538065
400.0,7.907624703440293
500.0,7.907629347542059
600.0,7.9076890780697005
700.0,7.90777673191562
800.0,7.907874238214665
900.0,7.907975356085616
1000.0,7.908072376717056
1100.0,7.90816738264157
1200.0,7.908255970460483
1300.0,7.908339900638445
1400.0,7.908419428807904
1500.0,7.908495776394245
1600.0,7.908567970615904
1700.0,7.908633721822603
1800.0,7.908695983965105
1900.0,7.90875518072005
2000.0,7.90881022791362
2100.0,7.908862096961402
2200.0,7.908913124892846
2300.0,7.908963786375088
2400.0,7.909013796096406
2500.0,7.909063055421497
2600.0,7.909111580950108
2700.0,7.9091595164312585
2800.0,7.909206700185762
2900.0,7.909253215054413
3000.0,7.90929897833145
3100.0,7.909344048528567
3200.0,7.909388394821231
3300.0,7.9094321087656265
3400.0,7.909475140749783
3500.0,7.909517532549361
3600.0,7.909559327954265
3700.0,7.909600439338555
3800.0,7.909640875384435
3900.0,7.909680661808732
4000.0,7.9097199151712125
4100.0,7.909758580619235
4200.0,7.909796680157439
4300.0,7.9098342066844864
4400.0,7.909871121186016
4500.0,7.909907488403803
4600.0,7.9099433413768345
4700.0,7.90997862193661
4800.0,7.910013431046719
4900.0,7.910047524380328
5000.0,7.9100810820674905
5100.0,7.910114304261767
5200.0,7.9101469329982175
5300.0,7.910179033365293
5400.0,7.910210770436144
5500.0,7.910242019451022
5600.0,7.910272808988936
5700.0,7.910303114620219
5800.0,7.910332978230378
5900.0,7.910362350667495
6000.0,7.910391255485527
6100.0,7.910419820125822
6200.0,7.9104479145727815
6300.0,7.910475555910386
6400.0,7.910502828934891
6500.0,7.910529564981056
6600.0,7.910555903989731
6700.0,7.910581849905552
6800.0,7.910607501471301
6900.0,7.910632737445598
7000.0,7.910657610959149
7100.0,7.910682105374293
7200.0,7.910706219421577
7300.0,7.91072998230426
7400.0,7.910753385663579
7500.0,7.910776369878071
7600.0,7.910799063654872
7700.0,7.91082137405865
7800.0,7.910843346850583
7900.0,7.910864899958137
8000.0,7.910886182396384
8100.0,7.910907241123021
8200.0,7.910927947059716
8300.0,7.910948262617589
8400.0,7.910968306340355
8500.0,7.910988087385108
8600.0,7.911007622793575
8700.0,7.911026802606946
8800.0,7.911045697366852
8900.0,7.911064304997862
9000.0,7.911082623508428
9100.0,7.911100694778691
9200.0,7.911118483761292
9300.0,7.911136019160458
9400.0,7.9111532864689424
9500.0,7.911170254811779
9600.0,7.911186947766088
9700.0,7.911203446565974
9800.0,7.911219696043398
9900.0,7.911235720073759
10000.0,7.911251477047651
10100.0,7.9112669328771394
10200.0,7.911282139804553
10300.0,7.91129724621673
10400.0,7.911312121458464
10500.0,7.911326743368111
10600.0,7.911341092198591
10700.0,7.911355204418402
10800.0,7.911369095488393
10900.0,7.911382808137589
11000.0,7.911396413308401
11100.0,7.911409770848304
11200.0,7.9114228910067315
11300.0,7.911435798636086
11400.0,7.911448504175831
11500.0,7.911461011698441
11600.0,7.911473323920879
11700.0,7.911485528581702
11800.0,7.911497496929112
11900.0,7.911509260192267
12000.0,7.911520872097696
12100.0,7.911532318043364
12200.0,7.911543589227308
12300.0,7.9115546844258
12400.0,7.911565603059569
12500.0,7.911576287809304
12600.0,7.911586913126297
12700.0,7.911597390945067
12800.0,7.911607717959227
12900.0,7.911617886064474
13000.0,7.911627894397253
13100.0,7.911637745100882
13200.0,7.911647417354821
13300.0,7.911656882465598
13400.0,7.91166618390137
13500.0,7.911675339021424
13600.0,7.91168449520558
13700.0,7.911693495283716
13800.0,7.911702372754079
13900.0,7.911711104700038
14000.0,7.911719721293192
14100.0,7.911728180340237
14200.0,7.911736454885574
14300.0,7.911744585733352
14400.0,7.91175258926395
14500.0,7.911760469524122
14600.0,7.911768227762713
14700.0,7.911775877875992
14800.0,7.911783562255046
14900.0,7.911791102773364
15000.0,7.91179851849316
15100.0,7.911805834779404
15200.0,7.911812983319822
15300.0,7.911819996058101
15400.0,7.911826894595087
15500.0,7.911833686168509
15600.0,7.911840372817261
15700.0,7.91184695557533
15800.0,7.911853435610235
15900.0,7.911859814307772
16000.0,7.911866093163655
16100.0,7.911872273656232
16200.0,7.911878473077658
16300.0,7.911884586765106
16400.0,7.911890534045862
16500.0,7.911896378686248
16600.0,7.911902140439923
16700.0,7.911907806465399
16800.0,7.911913400984205
16900.0,7.911918914559129
17000.0,7.911924343432835
17100.0,7.911929687449365
17200.0,7.91193494768735
17300.0,7.911940125476375
17400.0,7.911945222138706
17500.0,7.911950238902766
17600.0,7.911955177117647
17700.0,7.911960037854903
17800.0,7.911964815384837
17900.0,7.911969459479723
18000.0,7.911974042051644
18100.0,7.9119786827131255
18200.0,7.911983235509935
18300.0,7.911987719435197
18400.0,7.911992138265155
18500.0,7.91199649526532
18600.0,7.912000785665852
18700.0,7.912005008746075
18800.0,7.912009165346021
18900.0,7.912013256624267
19000.0,7.912017283708085
19100.0,7.912021247655461
19200.0,7.912025149442366
19300.0,7.912028990060152
19400.0,7.91203277042033
19500.0,7.9120364915220325
19600.0,7.912040154323678
19700.0,7.912043759743455
19800.0,7.91204726874542
19900.0,7.912050673851961
20000.0,7.912054013695912
20100.0,7.912057304869178
20200.0,7.912060549463403
20300.0,7.912063745276257
20400.0,7.912066891653219
20500.0,7.912069988908639
20600.0,7.912073114790751
20700.0,7.912076280768867
20800.0,7.912079390360813
20900.0,7.91208244802617
21000.0,7.912085461775103
21100.0,7.912088423832297
21200.0,7.912091347237417
21300.0,7.912094227192911
21400.0,7.91209706228739
21500.0,7.912099852783313
21600.0,7.91210259940297
21700.0,7.912105302906974
21800.0,7.912107964013773
21900.0,7.912110583366245
22000.0,7.9121131616922815
22100.0,7.912115699547963
22200.0,7.912118197603119
22300.0,7.9121206565092
22400.0,7.912123076888019
22500.0,7.912125459341874
22600.0,7.912127790966567
22700.0,7.912130026169031
22800.0,7.9121322019005085
22900.0,7.912134345299428
23000.0,7.912136458583177
23100.0,7.91213854068744
23200.0,7.912140590966777
23300.0,7.912142609420065
23400.0,7.9121445963712524
23500.0,7.912146552257352
23600.0,7.912148477543754
23700.0,7.9121503726988855
23800.0,7.912152238188067
23900.0,7.912154074444595
24000.0,7.9121558819686975
24100.0,7.912157661147425
24200.0,7.912159412447925
24300.0,7.912161136325289
24400.0,7.912162833214275
24500.0,7.912164503536191
24600.0,7.912166147705257
24700.0,7.912167766130419
24800.0,7.912169359214921
24900.0,7.912170968282276
25000.0,7.912172685791336
25100.0,7.912174369940068
25200.0,7.912176023582457
25300.0,7.91217764878591
25400.0,7.912179247069789
25500.0,7.912180822427332
25600.0,7.912182372139077
25700.0,7.912183901205999
25800.0,7.912185407299853
25900.0,7.912186889869275
26000.0,7.9121883491173675
26100.0,7.912189785430983
26200.0,7.912191199203281
26300.0,7.9121925908054935
26400.0,7.912193960570311
26500.0,7.912195308873903
26600.0,7.912196636012407
26700.0,7.912197942338064
26800.0,7.912199228189943
26900.0,7.912200493891736
27000.0,7.912201739758024
27100.0,7.912202966098568
27200.0,7.912204173219169
27300.0,7.912205361421236
27400.0,7.9122065310014165
27500.0,7.912207658339047
27600.0,7.912208710490247
27700.0,7.912209728992152
27800.0,7.912210734518147
27900.0,7.912211726081846
28000.0,7.91221270265309
28100.0,7.912213662806213
28200.0,7.912214607920619
28300.0,7.912215540028726
28400.0,7.912216457404667
28500.0,7.912217362764269
28600.0,7.912218254668463
28700.0,7.912219132735809
28800.0,7.912219997047461
28900.0,7.912220847809278
29000.0,7.912221685241719
29100.0,7.912222509558334
29200.0,7.912223320953078
29300.0,7.912224119646562
29400.0,7.912224905813426
29500.0,7.912225679661558
29600.0,7.912226441391265
29700.0,7.912227191193881
29800.0,7.912227929255405
29900.0,7.9122286557590105
30000.0,7.912229370885558
30100.0,7.91223007481331
30200.0,7.912230767717718
30300.0,7.912231449771428
30400.0,7.912232121144345
30500.0,7.91223278200371
30600.0,7.912233432514166
30700.0,7.91223407283778
30800.0,7.912234703134171
30900.0,7.912235323560204
31000.0,7.912235934270657
31100.0,7.912236535417576
31200.0,7.912237127150658
31300.0,7.912237709617205
31400.0,7.9122382829624875
31500.0,7.9122388473291805
31600.0,7.9122394028579635
31700.0,7.912239949687375
31800.0,7.912240487953514
31900.0,7.912241017790655
32000.0,7.9122415393307035
32100.0,7.912242052703536
32200.0,7.912242558036946
32300.0,7.9122430554569725
32400.0,7.912243545087393
32500.0,7.912244027050263
32600.0,7.912244501465765
32700.0,7.912244968451982
32800.0,7.912245428125408
32900.0,7.912245880600482
33000.0,7.912246325989873
33100.0,7.91224676440454
33200.0,7.91224719595371
33300.0,7.912247620744909
33400.0,7.912248038883961
33500.0,7.912248450475032
33600.0,7.912248855620662
33700.0,7.912249254421785
33800.0,7.91224964697769
33900.0,7.912250033386274
34000.0,7.912250413743681
34100.0,7.912250788144728
34200.0,7.912251156682784
34300.0,7.912251519449577
34400.0,7.9122518765356045
34500.0,7.912252228029762
34600.0,7.912252574019573
34700.0,7.912252914591181
34800.0,7.9122532498295195
34900.0,7.912253579818011
35000.0,7.912253904638915
35100.0,7.912254224373184
35200.0,7.9122545391004735
35300.0,7.9122548488991935
35400.0,7.9122551538465205
35500.0,7.912255454018423
35600.0,7.912255749489689
35700.0,7.912256040333927
35800.0,7.912256326623591
35900.0,7.9122566084300106
36000.0,7.91225688582339
36100.0,7.912257158872838
36200.0,7.912257427646377
36300.0,7.912257692211017
36400.0,7.912257952632591
36500.0,7.912258208976072
36600.0,7.912258461305289
36700.0,7.912258709683062
36800.0,7.912258954171232
36900.0,7.91225919483077
37000.0,7.912259431721568
37100.0,7.912259664902678
37200.0,7.912259894432247
37300.0,7.912260120367404
37400.0,7.912260342764512
37500.0,7.912260561678942
37600.0,7.912260777165196
37700.0,7.912260989276931
37800.0,7.912261198067043
37900.0,7.912261403587488
38000.0,7.912261605889498
38100.0,7.912261805023497
38200.0,7.912262001039092
38300.0,7.912262193985112
38400.0,7.912262383909627
38500.0,7.912262570859989
38600.0,7.912262754882719
38700.0,7.912262936023728
38800.0,7.912263114328115
38900.0,7.912263289840284
39000.0,7.912263462603919
39100.0,7.912263632662118
39200.0,7.912263800057192
39300.0,7.912263964830871
39400.0,7.912264127024246
39500.0,7.912264286677688
39600.0,7.91226444383102
39700.0,7.912264598523374
39800.0,7.9122647507932635
39900.0,7.9122649006786
40000.0,7.912265048216765
40100.0,7.91226519344447
40200.0,7.91226533639792
40300.0,7.912265477112744
40400.0,7.912265615623993
40500.0,7.912265751966182
40600.0,7.91226588617327
40700.0,7.912266018278696
40800.0,7.912266148315372
40900.0,7.912266276315692
41000.0,7.912266402311549
41100.0,7.912266526334328
41200.0,7.912266648414928
41300.0,7.912266768583765
41400.0,7.912266886870777
41500.0,7.9122670033054305
41600.0,7.912267117916736
41700.0,7.912267230733246
41800.0,7.912267341783066
41900.0,7.91226745109386
42000.0,7.912267558692866
42100.0,7.912267664606886
42200.0,7.912267768862306
42300.0,7.912267871485107
42400.0,7.912267972500848
42500.0,7.912268071934694
42600.0,7.912268169811422
42700.0,7.912268266155415
42800.0,7.912268360990677
42900.0,7.912268454340831
43000.0,7.9122685462291376
43100.0,7.912268636678501
43200.0,7.912268725711426
43300.0,7.912268813350135
43400.0,7.912268899616445
43500.0,7.912268984531834
43600.0,7.912269068117444
43700.0,7.91226915039412
43800.0,7.912269231382335
43900.0,7.912269311102285
44000.0,7.912269389573866
44100.0,7.912269633762352
44200.0,7.912269884041903
44300.0,7.912270125599518
44400.0,7.9122703603192805
44500.0,7.912270589544403
44600.0,7.912270814117525
44700.0,7.912271034558718
44800.0,7.91227125119446
44900.0,7.91227146423709
45000.0,7.912271673831884
45100.0,7.912271880389756
45200.0,7.912272083773546
45300.0,7.9122722844079085
45400.0,7.9122724817350205
45500.0,7.912272675641545
45600.0,7.912272866225925
45700.0,7.91227305378942
45800.0,7.912273238687186
45900.0,7.91227342078464
46000.0,7.9122736004407646
46100.0,7.912273777401128
46200.0,7.912273951606336
46300.0,7.912274123078079
46400.0,7.912274291858678
46500.0,7.912274457992213
46600.0,7.91227462152119
46700.0,7.912274782484556
46800.0,7.912274940924995
46900.0,7.912275096878297
47000.0,7.91227525038578
47100.0,7.912275401489236
47200.0,7.912275550224714
47300.0,7.912275696631676
47400.0,7.912275840742639
47500.0,7.912275982594777
47600.0,7.912276122220147
47700.0,7.912276259655768
47800.0,7.912276394939083
47900.0,7.912276528102347
48000.0,7.91227665918089
48100.0,7.91227678820382
48200.0,7.912276915204415
48300.0,7.912277040211385
48400.0,7.912277163257864
48500.0,7.912277284377371
48600.0,7.9122774035987975
48700.0,7.912277520953766
48800.0,7.912277636468337
48900.0,7.912277750172308
49000.0,7.912277862091377
49100.0,7.9122779722552155
49200.0,7.912278080693834
49300.0,7.9122781874330945
49400.0,7.912278292501307
49500.0,7.912278395921809
49600.0,7.912278497721275
49700.0,7.912278597922713
49800.0,7.91227869655269
49900.0,7.9122787936380705
50000.0,7.91227888920201
50100.0,7.912278983269858
50200.0,7.912279075862505
50300.0,7.9122791670038355
50400.0,7.912279256714449
50500.0,7.912279345018125
50600.0,7.912279431938921
50700.0,7.912279517497566
50800.0,7.912279601716757
50900.0,7.912279684615199
51000.0,7.912279766214272
51100.0,7.9122798465324164
51200.0,7.912279925590928
51300.0,7.912280003411347
51400.0,7.912280080012226
51500.0,7.912280155413888
51600.0,7.91228022963308
51700.0,7.912280302688943
51800.0,7.912280374597988
51900.0,7.912280445379281
52000.0,7.912280515052103
52100.0,7.9122805836330725
52200.0,7.912280651140377
52300.0,7.912280717589012
52400.0,7.912280782996117
52500.0,7.912280847376472
52600.0,7.9122809107471515
52700.0,7.9122809731254105
52800.0,7.91228103452613
52900.0,7.912281094965596
53000.0,7.912281154457232
53100.0,7.9122812130163815
53200.0,7.912281270656282
53300.0,7.912281327392212
53400.0,7.9122813832396295
53500.0,7.912281438211853
53600.0,7.912281492323464
53700.0,7.912281545586483
53800.0,7.9122815980146415
53900.0,7.912281649619791
54000.0,7.912281700415617
54100.0,7.912281750415954
54200.0,7.912281799632729
54300.0,7.9122818480789965
54400.0,7.912281895765512
54500.0,7.912281942704577
54600.0,7.912281988906805
54700.0,7.912282034384439
54800.0,7.912282079149872
54900.0,7.912282123213775
55000.0,7.912282166587842
55100.0,7.912282209281704
55200.0,7.912282251306372
55300.0,7.9122822926713425
55400.0,7.912282333387588
55500.0,7.912282373466197
55600.0,7.912282412916725
55700.0,7.91228245174964
55800.0,7.912282489973562
55900.0,7.912282527598355
56000.0,7.912282564632522
56100.0,7.912282601085883
56200.0,7.912282636968363
56300.0,7.912282672288523
56400.0,7.91228270705573
56500.0,7.912282741277707
56600.0,7.912282774963282
56700.0,7.9122828081200645
56800.0,7.91228284075685
56900.0,7.9122828728825265
57000.0,7.9122829045047585
57100.0,7.91228293563193
57200.0,7.912282966270954
57300.0,7.912282996429736
57400.0,7.912283026115091
57500.0,7.912283055334888
57600.0,7.91228308409709
57700.0,7.912283112408553
57800.0,7.912283140276789
57900.0,7.912283167707986
58000.0,7.91228319470922
58100.0,7.912283221286596
58200.0,7.912283247447154
58300.0,7.912283273198027
58400.0,7.912283298545355
58500.0,7.912283323495857
58600.0,7.912283348055078
58700.0,7.912283372229353
58800.0,7.912283396024146
58900.0,7.912283419445763
59000.0,7.912283442500586
59100.0,7.912283465194112
59200.0,7.91228348753236
59300.0,7.912283509520295
59400.0,7.912283531163586
59500.0,7.912283552467123
59600.0,7.9122835734365555
59700.0,7.912283594077597
59800.0,7.912283614395171
59900.0,7.9122836343946625
60000.0,7.9122836540805155
60100.0,7.912283673457809
60200.0,7.91228369253092
60300.0,7.912283711304909
60400.0,7.912283729784886
60500.0,7.91228374797526
60600.0,7.912283765880855
60700.0,7.91228378350565
60800.0,7.9122838008541905
60900.0,7.9122838179303985
61000.0,7.912283834738797
61100.0,7.912283851283967
61200.0,7.912283867569856
61300.0,7.912283883600781
61400.0,7.912283899380306
61500.0,7.912283914912497
61600.0,7.912283930200869
61700.0,7.912283945249473
61800.0,7.912283960062409
61900.0,7.912283974643206
62000.0,7.912283988995734
62100.0,7.912284003123183
62200.0,7.9122840170291955
62300.0,7.912284030716912
62400.0,7.912284044189963
62500.0,7.9122840574520215
62600.0,7.912284070506249
62700.0,7.912284083356106
62800.0,7.912284096004446
62900.0,7.912284108454534
63000.0,7.912284120709181
63100.0,7.912284132771641
63200.0,7.912284144645194
63300.0,7.912284156332676
63400.0,7.912284167837185
63500.0,7.912284179161277
63600.0,7.912284190307873
63700.0,7.912284201279491
63800.0,7.91228421207904
63900.0,7.912284222709464
64000.0,7.912284233173295
64100.0,7.912284243473312
64200.0,7.9122842536118005
64300.0,7.912284263591377
64400.0,7.912284273414294
64500.0,7.912284283083156
64600.0,7.912284292600602
64700.0,7.912284301968899
64800.0,7.912284311190532
64900.0,7.9122843202675455
65000.0,7.912284329202285
65100.0,7.912284337996768
65200.0,7.912284346653327
65300.0,7.912284355174319
65400.0,7.912284363561778
65500.0,7.912284371817929
65600.0,7.9122843799446025
65700.0,7.912284387943896
65800.0,7.91228439581762
65900.0,7.91228440356786
66000.0,7.912284411196727
66100.0,7.91228441870604
66200.0,7.912284426097793
66300.0,7.912284433373624
66400.0,7.912284440535414
66500.0,7.9122844475847804
66600.0,7.912284454523586
66700.0,7.912284461353729
66800.0,7.912284468076838
66900.0,7.912284474694694
67000.0,7.912284481208763
67100.0,7.912284487620732
67200.0,7.912284493932048
67300.0,7.91228450014438
67400.0,7.912284506259425
67500.0,7.91228451227864
67600.0,7.912284518203621
67700.0,7.912284524035687
67800.0,7.912284529776339
67900.0,7.912284535426874
68000.0,7.912284540988792
68100.0,7.91228454646361
68200.0,7.912284551852629
68300.0,7.912284557157278
68400.0,7.91228456237874
68500.0,7.912284567518361
68600.0,7.912284572577299
68700.0,7.912284577556898
68800.0,7.912284582458516
68900.0,7.912284587283319
69000.0,7.912284592032587
69100.0,7.912284596700618
69200.0,7.91228460128792
69300.0,7.91228460579668
69400.0,7.912284610234014
69500.0,7.9122846146019645
69600.0,7.912284618901757
69700.0,7.912284623134475
69800.0,7.912284627301171
69900.0,7.9122846314028745
70000.0,7.9122846354405985
70100.0,7.912284639415341
70200.0,7.912284643328086
70300.0,7.9122846471798
70400.0,7.912284650971435
70500.0,7.912284654703925
70600.0,7.9122846583782
70700.0,7.912284661995161
70800.0,7.9122846655557035
70900.0,7.9122846690607105
71000.0,7.912284672511044
71100.0,7.912284675907559
71200.0,7.912284679251095
71300.0,7.912284682542477
71400.0,7.912284685782519
71500.0,7.912284688972027
71600.0,7.912284692111781
71700.0,7.912284695202562
71800.0,7.912284698245133
71900.0,7.912284701240244
72000.0,7.912284704188639
72100.0,7.912284707091042
72200.0,7.9122847099481755
72300.0,7.912284712760744
72400.0,7.912284715529438
72500.0,7.912284718254948
72600.0,7.912284720937944
72700.0,7.912284723579092
72800.0,7.912284726179043
72900.0,7.91228472873844
73000.0,7.912284731257913
73100.0,7.912284733738089
73200.0,7.912284736179579
73300.0,7.9122847385829855
73400.0,7.912284740948903
73500.0,7.912284743277918
73600.0,7.912284745570604
73700.0,7.912284747827528
73800.0,7.912284750049251
73900.0,7.912284752236317
74000.0,7.912284754389269
74100.0,7.912284756508641
74200.0,7.912284758594953
74300.0,7.912284760648723
74400.0,7.912284762670457
74500.0,7.9122847646606544
74600.0,7.912284766619809
74700.0,7.912284768548407
74800.0,7.912284770446924
74900.0,7.912284772315824
75000.0,7.912284774155574
75100.0,7.912284775966626
75200.0,7.912284777749432
75300.0,7.912284779504428
75400.0,7.91228478123205
75500.0,7.9122847829327245
75600.0,7.91228478460687
75700.0,7.912284786254903
75800.0,7.912284787877228
75900.0,7.91228478947425
76000.0,7.912284791046363
76100.0,7.912284792593952
76200.0,7.912284794117403
76300.0,7.912284795617088
76400.0,7.912284797093383
76500.0,7.91228479854665
76600.0,7.91228479997725
76700.0,7.912284801385533
76800.0,7.91228480277185
76900.0,7.9122848041365454
77000.0,7.912284805479952
77100.0,7.912284806802403
