M.D_b.CO3 Time [a],M.D_b.CO3 CO3 [mol/kg]
0.0,8.68408559524507e-05
100.0,8.660136487660913e-05
200.0,8.647567758227089e-05
300.0,8.642100963189114e-05
400.0,8.6404902725218e-05
500.0,8.640846070932589e-05
600.0,8.642220257059145e-05
700.0,8.644070660671363e-05
800.0,8.64610860120523e-05
900.0,8.648199934853227e-05
1000.0,8.650204091834779e-05
1100.0,8.652150716225835e-05
1200.0,8.65400504565904e-05
1300.0,8.65575912887857e-05
1400.0,8.657417692747345e-05
1500.0,8.658982512198016e-05
1600.0,8.660462563194275e-05
1700.0,8.661879692594168e-05
1800.0,8.663172068658324e-05
1900.0,8.664359761817895e-05
2000.0,8.665499495598934e-05
2100.0,8.66658465182243e-05
2200.0,8.66764165609804e-05
2300.0,8.668685952466855e-05
2400.0,8.669716779169426e-05
2500.0,8.670733923403672e-05
2600.0,8.671736306158709e-05
2700.0,8.672726468295462e-05
2800.0,8.673701438206049e-05
2900.0,8.67466178506935e-05
3000.0,8.675607211141529e-05
3100.0,8.676540102635766e-05
3200.0,8.677459032390526e-05
3300.0,8.678365351504305e-05
3400.0,8.679258194149409e-05
3500.0,8.680137374415342e-05
3600.0,8.681004748913498e-05
3700.0,8.681858875815735e-05
3800.0,8.682701469993921e-05
3900.0,8.683527943597313e-05
4000.0,8.684345446920368e-05
4100.0,8.685151255044498e-05
4200.0,8.68594445379843e-05
4300.0,8.686727429116473e-05
4400.0,8.687497860052683e-05
4500.0,8.688256767017736e-05
4600.0,8.689005280964856e-05
4700.0,8.689742153944539e-05
4800.0,8.690466729691418e-05
4900.0,8.691183394051523e-05
5000.0,8.691886974620288e-05
5100.0,8.69257958348319e-05
5200.0,8.693266167821417e-05
5300.0,8.693940052620002e-05
5400.0,8.694603662857969e-05
5500.0,8.695260067329969e-05
5600.0,8.69590662784691e-05
5700.0,8.696544024281866e-05
5800.0,8.697171888814384e-05
5900.0,8.697790868341652e-05
6000.0,8.698401026232134e-05
6100.0,8.69900196868539e-05
6200.0,8.699594153746131e-05
6300.0,8.70017826359034e-05
6400.0,8.700752996883618e-05
6500.0,8.70131893747869e-05
6600.0,8.70187707307012e-05
6700.0,8.702426029579994e-05
6800.0,8.702966013970006e-05
6900.0,8.703499911810942e-05
7000.0,8.704025858546061e-05
7100.0,8.7045439817495e-05
7200.0,8.705054010426347e-05
7300.0,8.70555740654331e-05
7400.0,8.706054324822814e-05
7500.0,8.706544005464495e-05
7600.0,8.707026854317986e-05
7700.0,8.707501787145134e-05
7800.0,8.70797046946675e-05
7900.0,8.708431167593188e-05
8000.0,8.708883303677151e-05
8100.0,8.709329579396166e-05
8200.0,8.709769789524234e-05
8300.0,8.710206229749196e-05
8400.0,8.710635579212642e-05
8500.0,8.711057938043071e-05
8600.0,8.71147377614137e-05
8700.0,8.711883312787871e-05
8800.0,8.712289111533857e-05
8900.0,8.712687206509817e-05
9000.0,8.713079623969005e-05
9100.0,8.713466336143117e-05
9200.0,8.713847275535235e-05
9300.0,8.714223175472186e-05
9400.0,8.71459283883402e-05
9500.0,8.714956983642467e-05
9600.0,8.715316519870985e-05
9700.0,8.715670657134374e-05
9800.0,8.716018195589198e-05
9900.0,8.716362047380944e-05
10000.0,8.716701727205885e-05
10100.0,8.717036664951387e-05
10200.0,8.717366470448813e-05
10300.0,8.717690081486666e-05
10400.0,8.718008364675364e-05
10500.0,8.71832264037341e-05
10600.0,8.718634300042704e-05
10700.0,8.71894155560863e-05
10800.0,8.719243208355368e-05
10900.0,8.719539692636997e-05
11000.0,8.719831543918877e-05
11100.0,8.720118983907784e-05
11200.0,8.720402745593919e-05
11300.0,8.720684515615413e-05
11400.0,8.720961417018618e-05
11500.0,8.721233513092803e-05
11600.0,8.721501331210848e-05
11700.0,8.721765095950397e-05
11800.0,8.722024890985992e-05
11900.0,8.722280769637342e-05
12000.0,8.722533561483058e-05
12100.0,8.722782848583308e-05
12200.0,8.723027666951571e-05
12300.0,8.723269039187093e-05
12400.0,8.723507112573374e-05
12500.0,8.72374202376668e-05
12600.0,8.723973503485864e-05
12700.0,8.724201496898334e-05
12800.0,8.724425039782565e-05
12900.0,8.724645173745248e-05
13000.0,8.724864155723442e-05
13100.0,8.725079275418312e-05
13200.0,8.725291282231037e-05
13300.0,8.725500467897347e-05
13400.0,8.72570683336663e-05
13500.0,8.725910167818768e-05
13600.0,8.726109359228139e-05
13700.0,8.726304821798472e-05
13800.0,8.726497168836056e-05
13900.0,8.726686613703822e-05
14000.0,8.726876315174017e-05
14100.0,8.727062887101445e-05
14200.0,8.727246527702322e-05
14300.0,8.727427887507103e-05
14400.0,8.727606718565696e-05
14500.0,8.727782582761858e-05
14600.0,8.727953211677926e-05
14700.0,8.728121411521149e-05
14800.0,8.728287507846453e-05
14900.0,8.728451383858855e-05
15000.0,8.728612875426728e-05
15100.0,8.728771945941547e-05
15200.0,8.728930995072814e-05
15300.0,8.72908814093044e-05
15400.0,8.72924310006237e-05
15500.0,8.729395229248302e-05
15600.0,8.729544245197969e-05
15700.0,8.729690740155897e-05
15800.0,8.729835000477221e-05
15900.0,8.729977106314188e-05
16000.0,8.730117083961636e-05
16100.0,8.730254954553015e-05
16200.0,8.730390743490722e-05
16300.0,8.730524479406886e-05
16400.0,8.730656192217744e-05
16500.0,8.730785912053643e-05
16600.0,8.730913665641149e-05
16700.0,8.731042350150638e-05
16800.0,8.731168381268075e-05
16900.0,8.731291489012698e-05
17000.0,8.731412587631538e-05
17100.0,8.731532072455454e-05
17200.0,8.731649646702559e-05
17300.0,8.731765767428692e-05
17400.0,8.731880241011114e-05
17500.0,8.73199300498958e-05
17600.0,8.732104062758773e-05
17700.0,8.732213437480869e-05
17800.0,8.732321155462374e-05
17900.0,8.73242724241361e-05
18000.0,8.732531721728753e-05
18100.0,8.732634620208059e-05
18200.0,8.732735958444952e-05
18300.0,8.732835761322186e-05
18400.0,8.732933702030685e-05
18500.0,8.733028970950134e-05
18600.0,8.73312498122008e-05
18700.0,8.733220151448692e-05
18800.0,8.733314017924297e-05
18900.0,8.733406334332887e-05
19000.0,8.733497493746236e-05
19100.0,8.733587349567991e-05
19200.0,8.733675854638643e-05
19300.0,8.73376301444597e-05
19400.0,8.73384884967032e-05
19500.0,8.73393338257534e-05
19600.0,8.734016634229244e-05
19700.0,8.734098623569629e-05
19800.0,8.734179371746827e-05
19900.0,8.734258895053642e-05
20000.0,8.734337213001786e-05
20100.0,8.734414344674729e-05
20200.0,8.73449030830848e-05
20300.0,8.734565121554934e-05
20400.0,8.734638588826444e-05
20500.0,8.734709729608208e-05
20600.0,8.734779235008907e-05
20700.0,8.734847697683557e-05
20800.0,8.73491518609086e-05
20900.0,8.734981689803017e-05
21000.0,8.735047202357676e-05
21100.0,8.735111728955113e-05
21200.0,8.735175441019608e-05
21300.0,8.735241624897162e-05
21400.0,8.735306500490168e-05
21500.0,8.735370346920767e-05
21600.0,8.735433185760038e-05
21700.0,8.735495152163609e-05
21800.0,8.735556163241036e-05
21900.0,8.735616384525366e-05
22000.0,8.735675729797905e-05
22100.0,8.73573417904355e-05
22200.0,8.735791739822054e-05
22300.0,8.735848426338368e-05
22400.0,8.735904253022491e-05
22500.0,8.735959233523372e-05
22600.0,8.736013380123148e-05
22700.0,8.736066706576668e-05
22800.0,8.736119223924166e-05
22900.0,8.736170945178311e-05
23000.0,8.736221882854695e-05
23100.0,8.736272048913567e-05
23200.0,8.736321454993489e-05
23300.0,8.73636957120777e-05
23400.0,8.736415810847056e-05
23500.0,8.736461023762938e-05
23600.0,8.736505604813045e-05
23700.0,8.736549570667749e-05
23800.0,8.736592900765625e-05
23900.0,8.736635586332303e-05
24000.0,8.7366776296497e-05
24100.0,8.736719037960918e-05
24200.0,8.736759820089724e-05
24300.0,8.736799985206279e-05
24400.0,8.736839542483183e-05
24500.0,8.736878501017207e-05
24600.0,8.736916869266293e-05
24700.0,8.736954656831659e-05
24800.0,8.73699187150246e-05
24900.0,8.737028522464562e-05
25000.0,8.737064618562974e-05
25100.0,8.737100168255091e-05
25200.0,8.737135179773816e-05
25300.0,8.737169661234326e-05
25400.0,8.737203620653825e-05
25500.0,8.737237065938242e-05
25600.0,8.737270004873072e-05
25700.0,8.73730382035386e-05
25800.0,8.737339290297375e-05
25900.0,8.737374122140074e-05
26000.0,8.73740835898008e-05
26100.0,8.737442037232242e-05
26200.0,8.73747518256354e-05
26300.0,8.73750782249651e-05
26400.0,8.737540039235803e-05
26500.0,8.737571813530027e-05
26600.0,8.737603117876657e-05
26700.0,8.737633948192136e-05
26800.0,8.737664309880848e-05
26900.0,8.73769421048444e-05
27000.0,8.737723657494044e-05
27100.0,8.737752658044441e-05
27200.0,8.737781218928379e-05
27300.0,8.737809346502497e-05
27400.0,8.737837047309957e-05
27500.0,8.73786432815172e-05
27600.0,8.737891195647674e-05
27700.0,8.737917656500084e-05
27800.0,8.737943716681298e-05
27900.0,8.737969381944506e-05
28000.0,8.737994657858725e-05
28100.0,8.738019550278373e-05
28200.0,8.73804406531136e-05
28300.0,8.738068208904915e-05
28400.0,8.738090822570385e-05
28500.0,8.738112453415138e-05
28600.0,8.738133611719497e-05
28700.0,8.738154415091614e-05
28800.0,8.738174908433823e-05
28900.0,8.738195101384566e-05
29000.0,8.738215001288688e-05
29100.0,8.738234651929774e-05
29200.0,8.73825403828002e-05
29300.0,8.738273141644522e-05
29400.0,8.738291958027961e-05
29500.0,8.738310489734889e-05
29600.0,8.738328740796787e-05
29700.0,8.738346715483442e-05
29800.0,8.738364417995043e-05
29900.0,8.738381852398398e-05
30000.0,8.738399022528267e-05
30100.0,8.738415932354511e-05
30200.0,8.738432586011919e-05
30300.0,8.738448987483765e-05
30400.0,8.738465140601649e-05
30500.0,8.738481049109927e-05
30600.0,8.738496716701815e-05
30700.0,8.73851214702401e-05
30800.0,8.738527343671146e-05
30900.0,8.738542310182776e-05
31000.0,8.738557050043787e-05
31100.0,8.738571566685946e-05
31200.0,8.738585863489106e-05
31300.0,8.73859994378214e-05
31400.0,8.738613810843439e-05
31500.0,8.738627467939728e-05
31600.0,8.73864091846832e-05
31700.0,8.73865416546685e-05
31800.0,8.738667211860164e-05
31900.0,8.7386800604771e-05
32000.0,8.738692714289664e-05
32100.0,8.738705176398326e-05
32200.0,8.738717449822226e-05
32300.0,8.738729537617122e-05
32400.0,8.738741442506647e-05
32500.0,8.738753167114969e-05
32600.0,8.738764713982667e-05
32700.0,8.738776085780667e-05
32800.0,8.738787285295462e-05
32900.0,8.738798315240353e-05
33000.0,8.73880917836179e-05
33100.0,8.738819877107291e-05
33200.0,8.738830413835293e-05
33300.0,8.738840790829038e-05
33400.0,8.738851010488885e-05
33500.0,8.738861075319159e-05
33600.0,8.738870987758362e-05
33700.0,8.738880750274493e-05
33800.0,8.738890365067383e-05
33900.0,8.738899834256566e-05
34000.0,8.738909159893983e-05
34100.0,8.738918344136737e-05
34200.0,8.738927389235625e-05
34300.0,8.738936297382058e-05
34400.0,8.738945070794079e-05
34500.0,8.73895371144866e-05
34600.0,8.738962221250611e-05
34700.0,8.738970602044023e-05
34800.0,8.738978855767604e-05
34900.0,8.738986984443946e-05
35000.0,8.738994990042607e-05
35100.0,8.739002874556973e-05
35200.0,8.739010639763792e-05
35300.0,8.73901828739512e-05
35400.0,8.739025819205549e-05
35500.0,8.73903323694371e-05
35600.0,8.739040542336911e-05
35700.0,8.739047737087001e-05
35800.0,8.739054822869926e-05
35900.0,8.739061801316762e-05
36000.0,8.73906867396702e-05
36100.0,8.739075442413829e-05
36200.0,8.739082108315038e-05
36300.0,8.739088673284887e-05
36400.0,8.739095138958456e-05
36500.0,8.739101506793022e-05
36600.0,8.73910777820914e-05
36700.0,8.739113954645695e-05
36800.0,8.739120037536657e-05
36900.0,8.739126028298549e-05
37000.0,8.739131928327108e-05
37100.0,8.739137738996715e-05
37200.0,8.739143461644849e-05
37300.0,8.73914909753405e-05
37400.0,8.739154647970912e-05
37500.0,8.73916011431479e-05
37600.0,8.739165497889709e-05
37700.0,8.739170800036346e-05
37800.0,8.739176021949775e-05
37900.0,8.739181164781386e-05
38000.0,8.739186229645697e-05
38100.0,8.73919121771445e-05
38200.0,8.739196130210083e-05
38300.0,8.739200968323037e-05
38400.0,8.73920573325785e-05
38500.0,8.73921042608857e-05
38600.0,8.739215047861991e-05
38700.0,8.739219599638518e-05
38800.0,8.739224082474988e-05
38900.0,8.739228497403225e-05
39000.0,8.739232845397438e-05
39100.0,8.739237127465918e-05
39200.0,8.739241344657456e-05
39300.0,8.73924549799354e-05
39400.0,8.73924958850856e-05
39500.0,8.739253617124468e-05
39600.0,8.739257584740063e-05
39700.0,8.739261492265803e-05
39800.0,8.739265340608807e-05
39900.0,8.739269130665384e-05
40000.0,8.739272863318484e-05
40100.0,8.739276539437735e-05
40200.0,8.73928015987928e-05
40300.0,8.739283725486485e-05
40400.0,8.73928723708979e-05
40500.0,8.739290695497552e-05
40600.0,8.739294101472778e-05
40700.0,8.73929745580514e-05
40800.0,8.739300759316208e-05
40900.0,8.739304012806071e-05
41000.0,8.739307217085131e-05
41100.0,8.739310372875589e-05
41200.0,8.739313480881539e-05
41300.0,8.739316541816175e-05
41400.0,8.739319556390105e-05
41500.0,8.739322525305448e-05
41600.0,8.739325449253922e-05
41700.0,8.739328328916663e-05
41800.0,8.739331164964414e-05
41900.0,8.739333958057803e-05
42000.0,8.739336708847402e-05
42100.0,8.739339417966357e-05
42200.0,8.739342086012475e-05
42300.0,8.73934471360421e-05
42400.0,8.739347301385371e-05
42500.0,8.739349849982526e-05
42600.0,8.739352360030495e-05
42700.0,8.739354832095149e-05
42800.0,8.739357266727925e-05
42900.0,8.739359664487598e-05
43000.0,8.739362025930728e-05
43100.0,8.739364351607438e-05
43200.0,8.739366642059532e-05
43300.0,8.739368897820529e-05
43400.0,8.739371119415939e-05
43500.0,8.739373307363238e-05
43600.0,8.739375462172007e-05
43700.0,8.739377584338324e-05
43800.0,8.739379674330372e-05
43900.0,8.739381732632758e-05
44000.0,8.739383759749598e-05
44100.0,8.739385756171944e-05
44200.0,8.739387722396962e-05
44300.0,8.739389658867897e-05
44400.0,8.739391566016855e-05
44500.0,8.739393444281345e-05
44600.0,8.739395294097592e-05
44700.0,8.739397115896337e-05
44800.0,8.739398910102043e-05
44900.0,8.739400677132772e-05
45000.0,8.739402417400016e-05
45100.0,8.73940413130924e-05
45200.0,8.739405819259593e-05
45300.0,8.739407481639701e-05
45400.0,8.739409118816306e-05
45500.0,8.739412595229636e-05
45600.0,8.739417831636364e-05
45700.0,8.739422887603596e-05
45800.0,8.739427800944692e-05
45900.0,8.739432600212255e-05
46000.0,8.739437303483932e-05
46100.0,8.739441921936935e-05
46200.0,8.739446462579434e-05
46300.0,8.739450929948507e-05
46400.0,8.739455327121965e-05
46500.0,8.739459656314964e-05
46600.0,8.739463919230732e-05
46700.0,8.739468123855746e-05
46800.0,8.73947226528222e-05
46900.0,8.73947635327614e-05
47000.0,8.73948037585263e-05
47100.0,8.739484332409027e-05
47200.0,8.739488222879827e-05
47300.0,8.739492053639305e-05
47400.0,8.739495832320906e-05
47500.0,8.739499554506194e-05
47600.0,8.739503228824689e-05
47700.0,8.739506844466222e-05
47800.0,8.739510400823823e-05
47900.0,8.739513897816592e-05
48000.0,8.739517341153876e-05
48100.0,8.739520737688247e-05
48200.0,8.739524083445798e-05
48300.0,8.739527386180065e-05
48400.0,8.73953063617328e-05
48500.0,8.739533832878728e-05
48600.0,8.73953697622341e-05
48700.0,8.739540071338888e-05
48800.0,8.739543124384616e-05
48900.0,8.73954613178855e-05
49000.0,8.739549100519985e-05
49100.0,8.739552021844045e-05
49200.0,8.739554895269184e-05
49300.0,8.73955772072973e-05
49400.0,8.739560502838382e-05
49500.0,8.739563247131681e-05
49600.0,8.739565950398807e-05
49700.0,8.739568618904305e-05
49800.0,8.739571244796559e-05
49900.0,8.739573827633789e-05
50000.0,8.739576367357034e-05
50100.0,8.73957886811243e-05
50200.0,8.739581334876568e-05
50300.0,8.73958376476344e-05
50400.0,8.739586163404096e-05
50500.0,8.739588523740913e-05
50600.0,8.73959084537675e-05
50700.0,8.739593128258557e-05
50800.0,8.739595376113269e-05
50900.0,8.73959759341425e-05
51000.0,8.739599777567312e-05
51100.0,8.739601933633943e-05
51200.0,8.739604055270342e-05
51300.0,8.739606142119524e-05
51400.0,8.739608194133873e-05
51500.0,8.739610214663336e-05
51600.0,8.739612207728855e-05
51700.0,8.739614170998641e-05
51800.0,8.739616109022402e-05
51900.0,8.739618016097784e-05
52000.0,8.739619891903874e-05
52100.0,8.739621736397949e-05
52200.0,8.739623552591205e-05
52300.0,8.739625344097909e-05
52400.0,8.73962710882206e-05
52500.0,8.739628850853264e-05
52600.0,8.739630565065888e-05
52700.0,8.739632251171474e-05
52800.0,8.739633909131543e-05
52900.0,8.739635541652806e-05
53000.0,8.739637151984069e-05
53100.0,8.739638738241272e-05
53200.0,8.739640304100441e-05
53300.0,8.739641844954331e-05
53400.0,8.73964336054358e-05
53500.0,8.739644850833667e-05
53600.0,8.739646318257557e-05
53700.0,8.739647765735493e-05
53800.0,8.73964919157396e-05
53900.0,8.739650599077183e-05
54000.0,8.739651984103937e-05
54100.0,8.73965334642105e-05
54200.0,8.739654685997483e-05
54300.0,8.739656005020149e-05
54400.0,8.739657306113983e-05
54500.0,8.73965858775676e-05
54600.0,8.739659852918566e-05
54700.0,8.739661097876864e-05
54800.0,8.739662322422188e-05
54900.0,8.73966352652657e-05
55000.0,8.739664712155753e-05
55100.0,8.739665881669226e-05
55200.0,8.739667033698762e-05
55300.0,8.739668170914007e-05
55400.0,8.739669289968942e-05
55500.0,8.739670390675232e-05
55600.0,8.739671473007784e-05
55700.0,8.739672538733574e-05
55800.0,8.739673589973452e-05
55900.0,8.739674625497516e-05
56000.0,8.739675647705424e-05
56100.0,8.73967665358957e-05
56200.0,8.73967764298065e-05
56300.0,8.739678615856181e-05
56400.0,8.739679573804361e-05
56500.0,8.739680518731571e-05
56600.0,8.739681449532308e-05
56700.0,8.739682368363573e-05
56800.0,8.739683272521917e-05
56900.0,8.739684161855164e-05
57000.0,8.739685036343025e-05
57100.0,8.739685897413149e-05
57200.0,8.739686746779097e-05
57300.0,8.739687583447188e-05
57400.0,8.73968840935629e-05
57500.0,8.739689222076372e-05
57600.0,8.739690021470608e-05
57700.0,8.739690807520779e-05
57800.0,8.739691581510165e-05
57900.0,8.739692344978985e-05
58000.0,8.739693097034109e-05
58100.0,8.73969383941832e-05
58200.0,8.73969456994728e-05
58300.0,8.739695288498061e-05
58400.0,8.739695995054248e-05
58500.0,8.739696690769394e-05
58600.0,8.73969737702792e-05
58700.0,8.73969805302697e-05
58800.0,8.739698720333194e-05
58900.0,8.739699376983071e-05
59000.0,8.739700022866124e-05
59100.0,8.739700657967604e-05
59200.0,8.739701283324355e-05
59300.0,8.739701900180907e-05
59400.0,8.739702507815557e-05
59500.0,8.73970310763643e-05
59600.0,8.739703697878663e-05
59700.0,8.739704278442896e-05
59800.0,8.739704849315916e-05
59900.0,8.739705411429718e-05
60000.0,8.73970596590291e-05
60100.0,8.739706512086843e-05
60200.0,8.739707051247228e-05
60300.0,8.739707581797614e-05
60400.0,8.739708103648785e-05
60500.0,8.739708616788829e-05
60600.0,8.739709122055439e-05
60700.0,8.739709619677982e-05
60800.0,8.73971010978913e-05
60900.0,8.739710593256989e-05
61000.0,8.739711069501792e-05
61100.0,8.739711539622445e-05
61200.0,8.739712002235413e-05
61300.0,8.739712457263006e-05
61400.0,8.73971290469489e-05
61500.0,8.739713345261523e-05
61600.0,8.739713779162935e-05
61700.0,8.739714206514721e-05
61800.0,8.739714628073944e-05
61900.0,8.739715043335061e-05
62000.0,8.739715453256184e-05
62100.0,8.739715856631025e-05
62200.0,8.739716253391801e-05
62300.0,8.739716643529471e-05
62400.0,8.739717027681011e-05
62500.0,8.739717406020812e-05
62600.0,8.739717778649701e-05
62700.0,8.739718146227742e-05
62800.0,8.739718508314143e-05
62900.0,8.739718865744376e-05
63000.0,8.739719217466571e-05
63100.0,8.739719563421583e-05
63200.0,8.739719903601651e-05
63300.0,8.739720238562118e-05
63400.0,8.73972056845502e-05
63500.0,8.73972089336829e-05
63600.0,8.739721213877481e-05
63700.0,8.739721529598279e-05
63800.0,8.739721841259139e-05
63900.0,8.739722147942816e-05
64000.0,8.739722449597852e-05
64100.0,8.739722746217406e-05
64200.0,8.739723038285733e-05
64300.0,8.739723325935433e-05
64400.0,8.739723609243121e-05
64500.0,8.739723888275917e-05
64600.0,8.739724163098562e-05
64700.0,8.739724433774588e-05
64800.0,8.739724700366582e-05
64900.0,8.739724962936197e-05
65000.0,8.739725221544107e-05
65100.0,8.739725476250092e-05
65200.0,8.739725727112956e-05
65300.0,8.739725974190759e-05
65400.0,8.739726217540586e-05
65500.0,8.7397264572187e-05
65600.0,8.739726693280507e-05
65700.0,8.739726925780544e-05
65800.0,8.739727154772565e-05
65900.0,8.739727380309449e-05
66000.0,8.739727602443424e-05
66100.0,8.739727821225834e-05
66200.0,8.739728036707126e-05
66300.0,8.739728248937204e-05
66400.0,8.739728457965081e-05
66500.0,8.739728663839109e-05
66600.0,8.739728866606889e-05
66700.0,8.739729066315198e-05
66800.0,8.739729263010307e-05
66900.0,8.739729456737642e-05
67000.0,8.739729647541916e-05
67100.0,8.73972983546732e-05
