M.D_b.DIC Time [a],M.D_b.DIC DIC [mol/kg]
0.0,0.0022950615409516
0.08333333333333333,0.0022950615409532966
0.16666666666666666,0.002295061540960981
0.25,0.0022950615409775615
0.3333333333333333,0.0022950615410053258
0.41666666666666663,0.002295061541048828
0.5,0.0022950615411065347
0.5833333333333333,0.002295061541182735
0.6666666666666666,0.0022950615412811667
0.75,0.002295061541404968
0.8333333333333333,0.002295061541556976
0.9166666666666666,0.002295061541739875
1.0,0.0022950615419562357
1.0833333333333333,0.0022950615422085248
1.1666666666666665,0.0022950615424991
1.25,0.0022950615428302137
1.3333333333333333,0.0022950615432040093
1.4166666666666665,0.0022950615436225247
1.5,0.0022950615440876943
1.5833333333333333,0.0022950615446013485
1.6666666666666665,0.0022950615451651775
1.75,0.0022950615457808916
1.8333333333333333,0.002295061546449862
1.9166666666666665,0.0022950615471735965
2.0,0.002295061547953526
2.083333333333333,0.0022950615487909547
2.1666666666666665,0.00229506154968707
2.25,0.0022950615506429723
2.333333333333333,0.0022950615516596925
2.4166666666666665,0.002295061552738189
2.5,0.002295061553879355
2.583333333333333,0.0022950615550840136
2.6666666666666665,0.002295061556352928
2.75,0.0022950615576867997
2.833333333333333,0.002295061559086275
2.9166666666666665,0.002295061560551946
3.0,0.0022950615620843553
3.083333333333333,0.002295061563683998
3.1666666666666665,0.0022950615653513236
3.25,0.002295061567086741
3.333333333333333,0.0022950615688906184
3.4166666666666665,0.002295061570763287
3.5,0.002295061572705046
3.583333333333333,0.0022950615747161594
3.6666666666666665,0.002295061576796863
3.75,0.0022950615789473646
3.833333333333333,0.0022950615811678453
3.9166666666666665,0.0022950615834584627
4.0,0.002295061585819352
4.083333333333333,0.002295061588250629
4.166666666666666,0.0022950615907523894
4.25,0.002295061593324712
4.333333333333333,0.0022950615959676612
4.416666666666666,0.0022950615986812818
4.5,0.0022950616014656127
4.583333333333333,0.0022950616043253052
4.666666666666666,0.0022950616072540207
4.75,0.00229506161026982
4.833333333333333,0.0022950616133588946
4.916666666666666,0.002295061616519071
5.0,0.0022950616197499854
5.083333333333333,0.0022950616230515515
5.166666666666666,0.002295061626423722
5.25,0.002295061629866454
5.333333333333333,0.0022950616333797
5.416666666666666,0.00229506163696341
5.5,0.002295061640617531
5.583333333333333,0.0022950616443420074
5.666666666666666,0.0022950616481367814
5.75,0.002295061652001794
5.833333333333333,0.0022950616559369837
5.916666666666666,0.0022950616599422893
6.0,0.0022950616640176483
6.083333333333333,0.002295061668162996
6.166666666666666,0.0022950616723782695
6.25,0.0022950616766634043
6.333333333333333,0.002295061681018336
6.416666666666666,0.0022950616854430007
6.5,0.002295061689937335
6.583333333333333,0.002295061694501274
6.666666666666666,0.002295061699134756
6.75,0.0022950617038377174
6.833333333333333,0.0022950617086100974
6.916666666666666,0.0022950617134518334
7.0,0.0022950617183628654
7.083333333333333,0.002295061723343134
7.166666666666666,0.0022950617283925795
7.25,0.0022950617335111443
7.333333333333333,0.0022950617386987707
7.416666666666666,0.002295061743955402
7.5,0.0022950617492809838
7.583333333333333,0.0022950617546754603
7.666666666666666,0.0022950617601387785
7.75,0.002295061765670885
7.833333333333333,0.002295061771271727
7.916666666666666,0.002295061776941255
8.0,0.0022950617826794175
8.083333333333332,0.0022950617884861654
8.166666666666666,0.0022950617943614496
8.25,0.0022950618003052224
8.333333333333332,0.002295061806317436
8.416666666666666,0.0022950618123980453
8.5,0.0022950618185470033
8.583333333333332,0.0022950618247642657
8.666666666666666,0.0022950618310497873
8.75,0.0022950618374035247
8.833333333333332,0.0022950618438254355
8.916666666666666,0.0022950618503154757
9.0,0.0022950618568736043
9.083333333333332,0.00229506186349978
9.166666666666666,0.0022950618701939613
9.25,0.002295061876956108
9.333333333333332,0.0022950618837861802
9.416666666666666,0.002295061890684138
9.5,0.0022950618976499432
9.583333333333332,0.0022950619046835556
9.666666666666666,0.002295061911784938
9.75,0.0022950619189540523
9.833333333333332,0.00229506192619086
9.916666666666666,0.0022950619334953246
10.0,0.002295061940867409
10.083333333333332,0.002295061948307076
10.166666666666666,0.002295061955814289
10.25,0.0022950619633890124
10.333333333333332,0.00229506197103121
10.416666666666666,0.002295061978740846
10.5,0.0022950619865178845
10.583333333333332,0.00229506199436229
10.666666666666666,0.002295062002274028
10.75,0.0022950620102530628
10.833333333333332,0.0022950620182993595
10.916666666666666,0.0022950620264128837
11.0,0.0022950620345936006
11.083333333333332,0.002295062042841475
11.166666666666666,0.002295062051156474
11.25,0.002295062059538562
11.333333333333332,0.002295062067987706
11.416666666666666,0.0022950620765038706
11.5,0.0022950620850870226
11.583333333333332,0.0022950620937371275
11.666666666666666,0.0022950621024541524
11.75,0.0022950621112380622
11.833333333333332,0.0022950621200888244
11.916666666666666,0.0022950621290064046
12.0,0.002295062137990769
12.083333333333332,0.002295062147041885
12.166666666666666,0.002295062156159718
12.25,0.002295062165344235
12.333333333333332,0.0022950621745954024
12.416666666666666,0.0022950621839131873
12.5,0.002295062193297555
12.583333333333332,0.002295062202748474
12.666666666666666,0.0022950622122659093
12.75,0.0022950622218498285
12.833333333333332,0.002295062231500198
12.916666666666666,0.0022950622412169844
13.0,0.002295062251000155
13.083333333333332,0.0022950622608496766
13.166666666666666,0.0022950622707655155
13.25,0.0022950622807476387
13.333333333333332,0.002295062290796013
13.416666666666666,0.0022950623009106055
13.5,0.0022950623110913827
13.583333333333332,0.002295062321338312
13.666666666666666,0.002295062331651359
13.75,0.002295062342030492
13.833333333333332,0.002295062352475678
13.916666666666666,0.0022950623629868824
14.0,0.0022950623735640734
14.083333333333332,0.0022950623842072173
14.166666666666666,0.002295062394916282
14.25,0.0022950624056912337
14.333333333333332,0.0022950624165320394
14.416666666666666,0.0022950624274386665
14.5,0.0022950624384110814
14.583333333333332,0.0022950624494492513
14.666666666666666,0.0022950624605531434
14.75,0.002295062471722725
14.833333333333332,0.002295062482957963
14.916666666666666,0.002295062494258824
15.0,0.002295062505625275
15.083333333333332,0.002295062517057284
15.166666666666666,0.0022950625285548176
15.25,0.002295062540117843
15.333333333333332,0.0022950625517463266
15.416666666666666,0.0022950625634402364
15.5,0.0022950625751995395
15.583333333333332,0.0022950625870242027
15.666666666666666,0.0022950625989141935
15.75,0.0022950626108694788
15.833333333333332,0.0022950626228900256
15.916666666666666,0.0022950626349758016
16.0,0.0022950626471267737
16.083333333333332,0.002295062659342909
16.166666666666664,0.0022950626716199125
16.25,0.002295062683965179
16.333333333333332,0.0022950626963629656
16.416666666666664,0.0022950627088245768
16.5,0.00229506272134844
16.583333333333332,0.0022950627339521443
16.666666666666664,0.0022950627466231063
16.75,0.00229506275935508
16.833333333333332,0.002295062772155142
16.916666666666664,0.0022950627850075486
17.0,0.0022950627979235545
17.083333333333332,0.002295062810901593
17.166666666666664,0.0022950628239591917
17.25,0.0022950628370838107
17.333333333333332,0.0022950628502692275
17.416666666666664,0.002295062863522493
17.5,0.0022950628768279194
17.583333333333332,0.0022950628901967215
17.666666666666664,0.0022950629036273384
17.75,0.002295062917137235
17.833333333333332,0.002295062930713917
17.916666666666664,0.002295062944351183
18.0,0.0022950629580560586
18.083333333333332,0.0022950629718129123
18.166666666666664,0.002295062985632919
18.25,0.002295062999514523
18.333333333333332,0.002295063013475128
18.416666666666664,0.002295063027502284
18.5,0.00229506304158981
18.583333333333332,0.0022950630557447096
18.666666666666664,0.0022950630699514036
18.75,0.0022950630842210286
18.833333333333332,0.0022950630985520346
18.916666666666664,0.0022950631129617645
19.0,0.0022950631274378103
19.083333333333332,0.002295063141974015
19.166666666666664,0.002295063156577355
19.25,0.0022950631712323082
19.333333333333332,0.0022950631859499715
19.416666666666664,0.0022950632007287994
19.5,0.0022950632155860754
19.583333333333332,0.002295063230509434
19.666666666666664,0.00229506324549274
19.75,0.0022950632605429453
19.833333333333332,0.0022950632756445826
19.916666666666664,0.0022950632908087095
20.0,0.0022950633060337864
20.083333333333332,0.0022950633213370346
20.166666666666664,0.002295063336706134
20.25,0.00229506335213497
20.333333333333332,0.0022950633676304707
20.416666666666664,0.002295063383177222
20.5,0.0022950633987862436
20.583333333333332,0.002295063414456001
20.666666666666664,0.002295063430203655
20.75,0.0022950634460169286
20.833333333333332,0.002295063461889729
20.916666666666664,0.0022950634778289604
21.0,0.0022950634938192624
21.083333333333332,0.002295063509871615
21.166666666666664,0.0022950635259844903
21.25,0.002295063542174989
21.333333333333332,0.0022950635584308766
21.416666666666664,0.002295063574746082
21.5,0.0022950635911274846
21.583333333333332,0.002295063607559778
21.666666666666664,0.0022950636240539053
21.75,0.0022950636406083424
21.833333333333332,0.00229506365724013
21.916666666666664,0.0022950636739370767
22.0,0.002295063690693133
22.083333333333332,0.0022950637075151536
22.166666666666664,0.002295063724387887
22.25,0.0022950637413222366
22.333333333333332,0.002295063758316684
22.416666666666664,0.0022950637753882106
22.5,0.0022950637925246674
22.583333333333332,0.0022950638097200262
22.666666666666664,0.002295063826981118
22.75,0.002295063844292744
22.833333333333332,0.0022950638616657704
22.916666666666664,0.002295063879098683
23.0,0.0022950638966084042
23.083333333333332,0.002295063914182828
23.166666666666664,0.0022950639318159464
23.25,0.002295063949514567
23.333333333333332,0.002295063967263545
23.416666666666664,0.002295063985073707
23.5,0.0022950640029435455
23.583333333333332,0.002295064020889923
23.666666666666664,0.0022950640389007753
23.75,0.002295064056970117
23.833333333333332,0.0022950640751047305
23.916666666666664,0.002295064093289524
24.0,0.0022950641115352874
24.083333333333332,0.002295064129840518
24.166666666666664,0.0022950641482220183
24.25,0.0022950641666677676
24.333333333333332,0.0022950641851718005
24.416666666666664,0.002295064203740876
24.5,0.0022950642223599563
24.583333333333332,0.0022950642410397913
24.666666666666664,0.0022950642597788853
24.75,0.002295064278593981
24.833333333333332,0.0022950642974731007
24.916666666666664,0.0022950643164102993
25.0,0.002295064335412313
25.083333333333332,0.0022950643544641545
25.166666666666664,0.0022950643735765385
25.25,0.0022950643927479733
25.333333333333332,0.0022950644119951436
25.416666666666664,0.0022950644313061122
25.5,0.002295064450674956
25.583333333333332,0.0022950644701083874
25.666666666666664,0.0022950644895914723
25.75,0.002295064509134887
25.833333333333332,0.002295064528737145
25.916666666666664,0.002295064548414873
26.0,0.0022950645681561756
26.083333333333332,0.00229506458795515
26.166666666666664,0.0022950646078184855
26.25,0.0022950646277313004
26.333333333333332,0.0022950646477042334
26.416666666666664,0.002295064667735803
26.5,0.002295064687842578
26.583333333333332,0.0022950647080127048
26.666666666666664,0.0022950647282403013
26.75,0.0022950647485320327
26.833333333333332,0.0022950647688730697
26.916666666666664,0.0022950647892740136
27.0,0.002295064809733389
27.083333333333332,0.002295064830267706
27.166666666666664,0.002295064850865152
27.25,0.0022950648715198666
27.333333333333332,0.002295064892238491
27.416666666666664,0.002295064913006248
27.5,0.002295064933833702
27.583333333333332,0.0022950649547193824
27.666666666666664,0.002295064975679741
27.75,0.002295064996703008
27.833333333333332,0.0022950650177833423
27.916666666666664,0.0022950650389273624
28.0,0.0022950650601203425
28.083333333333332,0.0022950650813728106
28.166666666666664,0.002295065102683301
28.25,0.0022950651240682073
28.333333333333332,0.0022950651455158014
28.416666666666664,0.002295065167020263
28.5,0.0022950651885881865
28.583333333333332,0.0022950652102048993
28.666666666666664,0.002295065231880891
28.75,0.0022950652536147015
28.833333333333332,0.002295065275422667
28.916666666666664,0.0022950652972931
29.0,0.0022950653192202013
29.083333333333332,0.0022950653412105427
29.166666666666664,0.002295065363249502
29.25,0.002295065385347532
29.333333333333332,0.0022950654075031777
29.416666666666664,0.0022950654297327192
29.5,0.002295065452024509
29.583333333333332,0.0022950654743727687
29.666666666666664,0.002295065496784046
29.75,0.002295065519243771
29.833333333333332,0.0022950655417623604
29.916666666666664,0.002295065564338363
30.0,0.002295065586988003
30.083333333333332,0.002295065609699673
30.166666666666664,0.002295065632467614
30.25,0.0022950656552983527
30.333333333333332,0.0022950656781773686
30.416666666666664,0.0022950657011150425
30.5,0.002295065724109929
30.583333333333332,0.0022950657471781937
30.666666666666664,0.002295065770308272
30.75,0.0022950657934944236
30.833333333333332,0.002295065816743153
30.916666666666664,0.00229506584003999
31.0,0.00229506586339528
31.083333333333332,0.002295065886807582
31.166666666666664,0.002295065910293005
31.25,0.002295065933840024
31.333333333333332,0.0022950659574429216
31.416666666666664,0.0022950659811081767
31.5,0.0022950660048213713
31.583333333333332,0.002295066028592814
31.666666666666664,0.0022950660524210685
31.75,0.002295066076322188
31.833333333333332,0.0022950661002846882
31.916666666666664,0.00229506612430287
32.0,0.0022950661483831913
32.08333333333333,0.0022950661725112845
32.166666666666664,0.002295066196693659
32.25,0.002295066220933867
32.33333333333333,0.002295066245233015
32.416666666666664,0.0022950662695912856
32.5,0.0022950662940086396
32.58333333333333,0.0022950663184850223
32.666666666666664,0.0022950663430203917
32.75,0.0022950663676147157
32.83333333333333,0.0022950663922679643
32.916666666666664,0.0022950664169801077
33.0,0.0022950664417511163
33.08333333333333,0.002295066466580961
33.166666666666664,0.002295066491469612
33.25,0.0022950665164170403
33.33333333333333,0.002295066541423216
33.416666666666664,0.0022950665664881096
33.5,0.0022950665916116916
33.58333333333333,0.0022950666167939333
33.666666666666664,0.0022950666420348048
33.75,0.002295066667334277
33.83333333333333,0.00229506669269232
33.916666666666664,0.002295066718108905
34.0,0.0022950667435840022
34.08333333333333,0.0022950667691175822
34.166666666666664,0.0022950667947096164
34.25,0.002295066820360075
34.33333333333333,0.002295066846068929
34.416666666666664,0.002295066871836149
34.5,0.002295066897661706
34.58333333333333,0.0022950669235455704
34.666666666666664,0.0022950669494877134
34.75,0.002295066975488105
34.83333333333333,0.0022950670015467168
34.916666666666664,0.002295067027663519
35.0,0.002295067053838483
35.08333333333333,0.00229506708007158
35.166666666666664,0.0022950671063627797
35.25,0.002295067132712054
35.33333333333333,0.0022950671591193735
35.416666666666664,0.002295067185584709
35.5,0.0022950672121080317
35.58333333333333,0.0022950672386893127
35.666666666666664,0.002295067265328522
35.75,0.0022950672920256316
35.83333333333333,0.0022950673187806126
35.916666666666664,0.002295067345593435
36.0,0.0022950673724640705
36.08333333333333,0.00229506739939249
36.166666666666664,0.002295067426378665
36.25,0.002295067453422566
36.33333333333333,0.0022950674805241643
36.416666666666664,0.0022950675076834313
36.5,0.0022950675349003376
36.58333333333333,0.0022950675621748544
36.666666666666664,0.0022950675895069533
36.75,0.0022950676168966054
36.83333333333333,0.0022950676443437815
36.916666666666664,0.002295067671848453
37.0,0.002295067699410591
37.08333333333333,0.002295067727030167
37.166666666666664,0.002295067754707152
37.25,0.0022950677824415174
37.33333333333333,0.0022950678102332347
37.416666666666664,0.002295067838082274
37.5,0.002295067866063447
37.58333333333333,0.002295067894955379
37.666666666666664,0.00229506792426895
37.75,0.0022950679537364726
37.83333333333333,0.002295067983273359
37.916666666666664,0.0022950680126709736
38.0,0.0022950680412780105
38.08333333333333,0.0022950680698127016
38.166666666666664,0.0022950680983168646
38.25,0.0022950681268186016
38.33333333333333,0.002295068155336951
38.416666666666664,0.0022950681838848335
38.5,0.0022950682124710155
38.58333333333333,0.0022950682411014456
38.666666666666664,0.0022950682697801565
38.75,0.0022950682985098786
38.83333333333333,0.0022950683272924587
38.916666666666664,0.0022950683561291417
39.0,0.0022950683850207643
39.08333333333333,0.0022950684139678872
39.166666666666664,0.0022950684429708804
39.25,0.002295068472029988
39.33333333333333,0.0022950685011453647
39.416666666666664,0.0022950685303171087
39.5,0.0022950685595452764
39.58333333333333,0.002295068588829897
39.666666666666664,0.0022950686181709822
39.75,0.00229506864756853
39.83333333333333,0.0022950686770225296
39.916666666666664,0.0022950687065329653
40.0,0.0022950687360998178
40.08333333333333,0.0022950687657230643
40.166666666666664,0.0022950687954026807
40.25,0.0022950688251386405
40.33333333333333,0.002295068854930918
40.416666666666664,0.002295068884779486
40.5,0.002295068914684317
40.58333333333333,0.0022950689446453836
40.666666666666664,0.002295068974662658
40.75,0.0022950690047361115
40.83333333333333,0.002295069034865718
40.916666666666664,0.002295069065051447
41.0,0.0022950690952932722
41.08333333333333,0.0022950691255911658
41.166666666666664,0.0022950691559450987
41.25,0.0022950691863550432
41.33333333333333,0.0022950692168209716
41.416666666666664,0.0022950692473428552
41.5,0.002295069277920667
41.58333333333333,0.002295069308554378
41.666666666666664,0.002295069339243961
41.75,0.002295069369989387
41.83333333333333,0.0022950694007906293
41.916666666666664,0.002295069431647659
42.0,0.002295069462560448
42.08333333333333,0.0022950694935289693
42.166666666666664,0.002295069524553195
42.25,0.0022950695556330962
42.33333333333333,0.0022950695867686457
42.416666666666664,0.0022950696179598155
42.5,0.0022950696492065772
42.58333333333333,0.002295069680508904
42.666666666666664,0.002295069711866767
42.75,0.0022950697432801395
42.83333333333333,0.002295069774748993
42.916666666666664,0.0022950698062733
43.0,0.0022950698378530325
43.08333333333333,0.0022950698694881627
43.166666666666664,0.0022950699011786632
43.25,0.0022950699329245057
43.33333333333333,0.0022950699647256633
43.416666666666664,0.002295069996582108
43.5,0.0022950700284938117
43.58333333333333,0.0022950700604607464
43.666666666666664,0.0022950700924828857
43.75,0.0022950701245602013
43.83333333333333,0.0022950701566926655
43.916666666666664,0.0022950701888802506
44.0,0.002295070221122929
44.08333333333333,0.0022950702534206735
44.166666666666664,0.0022950702857734567
44.25,0.00229507031818125
44.33333333333333,0.002295070350644027
44.416666666666664,0.0022950703831617594
44.5,0.0022950704157344206
44.58333333333333,0.0022950704483619823
44.666666666666664,0.002295070481044417
44.75,0.002295070513781698
44.83333333333333,0.002295070546573797
44.916666666666664,0.0022950705794206865
45.0,0.00229507061232234
45.08333333333333,0.0022950706452787295
45.166666666666664,0.0022950706782898277
45.25,0.002295070711355607
45.33333333333333,0.00229507074447604
45.416666666666664,0.0022950707776511004
45.5,0.0022950708108807594
45.58333333333333,0.0022950708441649903
45.666666666666664,0.0022950708775037664
45.75,0.0022950709108970594
45.83333333333333,0.0022950709443448425
45.916666666666664,0.002295070977847089
46.0,0.002295071011403771
46.08333333333333,0.002295071045014861
46.166666666666664,0.002295071078680332
46.25,0.002295071112400157
46.33333333333333,0.002295071146174309
46.416666666666664,0.00229507118000276
