M.D_b.TA Time [a],M.D_b.TA TA [mol/kg]
0.0,0.002399
100.0,0.00239927945383225
200.0,0.0023993923382837766
300.0,0.0023995032177402333
400.0,0.0023996178995715103
500.0,0.002399730244695031
600.0,0.00239983909823648
700.0,0.0023999430547432905
800.0,0.002400041455938559
900.0,0.0024001348113891494
1000.0,0.002400220995170274
1100.0,0.0024003026642020787
1200.0,0.0024003794213354433
1300.0,0.0024004515121944883
1400.0,0.0024005193306881716
1500.0,0.0024005831244054165
1600.0,0.002400643340391845
1700.0,0.002400700852994787
1800.0,0.00240075345980527
1900.0,0.0024008019376005225
2000.0,0.0024008482775956914
2100.0,0.0024008922927371995
2200.0,0.0024009350257985077
2300.0,0.002400977068143197
2400.0,0.0024010184994598806
2500.0,0.002401059318590541
2600.0,0.002401099526205922
2700.0,0.0024011392193040338
2800.0,0.0024011782992685673
2900.0,0.002401216784034839
3000.0,0.0024012546690992793
3100.0,0.002401292044170779
3200.0,0.0024013288578809792
3300.0,0.002401365166278624
3400.0,0.002401400928415623
3500.0,0.00240143614869853
3600.0,0.002401470885164856
3700.0,0.002401505092236266
3800.0,0.0024015388371305857
3900.0,0.0024015719347819605
4000.0,0.002401604674308358
4100.0,0.0024016369384883963
4200.0,0.0024016686995231053
4300.0,0.002401700049530182
4400.0,0.002401730892898042
4500.0,0.002401761279079415
4600.0,0.002401791246344304
4700.0,0.0024018207406761635
4800.0,0.0024018497507230603
4900.0,0.0024018784353934826
5000.0,0.002401906596663689
5100.0,0.002401934320714669
5200.0,0.002401961795444017
5300.0,0.002401988763883885
5400.0,0.002402015323562143
5500.0,0.0024020415904123845
5600.0,0.002402067461082313
5700.0,0.0024020929671868386
5800.0,0.0024021180947864937
5900.0,0.002402142856764091
6000.0,0.002402167267771358
6100.0,0.002402191313841056
6200.0,0.002402215005140187
6300.0,0.002402238369631612
6400.0,0.0024022613652311766
6500.0,0.0024022840108424465
6600.0,0.002402306332037008
6700.0,0.0024023282912739845
6800.0,0.002402349893370179
6900.0,0.002402371250497701
7000.0,0.0024023922807085256
7100.0,0.002402413002942493
7200.0,0.0024024334033572424
7300.0,0.0024024535396420495
7400.0,0.002402473408491311
7500.0,0.0024024929893780023
7600.0,0.0024025122983000156
7700.0,0.002402531293956751
7800.0,0.002402550034369724
7900.0,0.002402568452339726
8000.0,0.0024025865353693027
8100.0,0.002402604384977175
8200.0,0.0024026219903746163
8300.0,0.002402639430515311
8400.0,0.0024026565926359655
8500.0,0.0024026734812475615
8600.0,0.002402690110337246
8700.0,0.002402706486415125
8800.0,0.0024027226997560204
8900.0,0.002402738613974665
9000.0,0.0024027543034874665
9100.0,0.0024027697643879222
9200.0,0.0024027849938329767
9300.0,0.00240280001743648
9400.0,0.002402814790961207
9500.0,0.0024028293453851124
9600.0,0.002402843716279205
9700.0,0.002402857872718271
9800.0,0.002402871769990073
9900.0,0.002402885510045616
10000.0,0.0024028990799910854
10100.0,0.0024029124631496875
10200.0,0.0024029256437936714
10300.0,0.0024029385819388863
10400.0,0.0024029513079197673
10500.0,0.002402963868326704
10600.0,0.002402976313272799
10700.0,0.0024029885862125715
10800.0,0.002403000641995763
10900.0,0.002403012494362202
11000.0,0.002403024160955805
11100.0,0.002403035649853681
11200.0,0.002403046988524661
11300.0,0.002403058235971336
11400.0,0.002403069296331849
11500.0,0.0024030801703614833
11600.0,0.0024030908745107595
11700.0,0.002403101415845441
11800.0,0.002403111797711164
11900.0,0.00240312202253879
12000.0,0.00240313212066962
12100.0,0.0024031420753735408
12200.0,0.0024031518549928743
12300.0,0.0024031614977589105
12400.0,0.002403171009258135
12500.0,0.0024031803946274765
12600.0,0.0024031896429957613
12700.0,0.0024031987520837963
12800.0,0.0024032076867600395
12900.0,0.0024032164843440147
13000.0,0.002403225224272952
13100.0,0.0024032338136069625
13200.0,0.0024032422803975852
13300.0,0.002403250635660644
13400.0,0.002403258878912701
13500.0,0.002403267001481006
13600.0,0.0024032749624567145
13700.0,0.0024032827763013106
13800.0,0.0024032904643483113
13900.0,0.0024032980345068565
14000.0,0.0024033056011909084
14100.0,0.0024033130461373078
14200.0,0.002403320377204045
14300.0,0.00240332761884918
14400.0,0.002403334760655251
14500.0,0.0024033417855761348
14600.0,0.0024033486075862444
14700.0,0.002403355330321799
14800.0,0.0024033619674674444
14900.0,0.002403368514829531
15000.0,0.0024033749661967517
15100.0,0.002403381320395687
15200.0,0.0024033876637549684
15300.0,0.0024033939310544295
15400.0,0.0024034001143788883
15500.0,0.0024034061883110853
15600.0,0.002403412143122219
15700.0,0.002403417998316596
15800.0,0.002403423762862978
15900.0,0.0024034294400474923
16000.0,0.002403435031426507
16100.0,0.002403440538233773
16200.0,0.0024034459616912064
16300.0,0.002403451303034797
16400.0,0.0024034565634993683
16500.0,0.00240346174430752
16600.0,0.0024034668465374867
16700.0,0.0024034719746638647
16800.0,0.00240347700178234
16900.0,0.0024034819181340196
17000.0,0.0024034867552144737
17100.0,0.002403491527655244
17200.0,0.002403496223513244
17300.0,0.00240350086114995
17400.0,0.0024035054328701813
17500.0,0.0024035099362205545
17600.0,0.0024035143713674514
17700.0,0.002403518739254654
17800.0,0.0024035230409432213
17900.0,0.0024035272774657447
18000.0,0.00240353144976004
18100.0,0.002403535558898547
18200.0,0.002403539605705387
18300.0,0.002403543591175676
18400.0,0.002403547503497238
18500.0,0.0024035513132227124
18600.0,0.002403555142131543
18700.0,0.0024035589357535555
18800.0,0.0024035626796694866
18900.0,0.0024035663636341386
19000.0,0.0024035700022815225
19100.0,0.002403573589498943
19200.0,0.002403577123164318
19300.0,0.0024035806033204732
19400.0,0.0024035840306857966
19500.0,0.0024035874060915024
19600.0,0.0024035907303498914
19700.0,0.0024035940042037083
19800.0,0.002403597228489234
19900.0,0.002403600403854921
20000.0,0.0024036035310783872
20100.0,0.002403606610921154
20200.0,0.002403609644111432
20300.0,0.002403612631354382
20400.0,0.0024036155655879615
20500.0,0.002403618411058968
20600.0,0.0024036211921879243
20700.0,0.00240362392929045
20800.0,0.002403626625682651
20900.0,0.002403629281803875
21000.0,0.002403631897926669
21100.0,0.002403634474502069
21200.0,0.0024036370186778593
21300.0,0.0024036396474268
21400.0,0.00240364222981844
21500.0,0.0024036447741869753
21600.0,0.0024036472802881066
21700.0,0.00240364975262619
21800.0,0.0024036521876351466
21900.0,0.0024036545914787356
22000.0,0.0024036569606001256
22100.0,0.0024036592940981667
22200.0,0.0024036615922029504
22300.0,0.0024036638554394123
22400.0,0.0024036660843615026
22500.0,0.0024036682795032056
22600.0,0.0024036704413499367
22700.0,0.0024036725704475446
22800.0,0.0024036746672361797
22900.0,0.0024036767322348253
23000.0,0.0024036787659430224
23100.0,0.002403680768838346
23200.0,0.0024036827413856207
23300.0,0.0024036846643282796
23400.0,0.0024036865161024003
23500.0,0.002403688326465343
23600.0,0.0024036901092133584
23700.0,0.0024036918658523806
23800.0,0.002403693596355593
23900.0,0.00240369530080802
24000.0,0.0024036969794860702
24100.0,0.0024036986327484688
24200.0,0.002403700260975332
24300.0,0.0024037018645466563
24400.0,0.002403703443836743
24500.0,0.0024037049992135726
24600.0,0.002403706531017472
24700.0,0.0024037080396335816
24800.0,0.002403709525373565
24900.0,0.0024037109886047314
25000.0,0.0024037124296805517
25100.0,0.002403713848938912
25200.0,0.002403715246708683
25300.0,0.002403716623314012
25400.0,0.0024037179790751136
25500.0,0.0024037193143077516
25600.0,0.002403720629322867
25700.0,0.002403721974176162
25800.0,0.0024037233789458833
25900.0,0.0024037247625537314
26000.0,0.002403726125221707
26100.0,0.002403727467296074
26200.0,0.002403728789104104
26300.0,0.002403730091316697
26400.0,0.002403731376967398
26500.0,0.0024037326451613822
26600.0,0.0024037338947285533
26700.0,0.0024037351254497935
26800.0,0.002403736337503978
26900.0,0.002403737531171123
27000.0,0.0024037387067392803
27100.0,0.0024037398644877936
27200.0,0.0024037410046851625
27300.0,0.0024037421275837317
27400.0,0.0024037432334440977
27500.0,0.0024037443225374353
27600.0,0.00240374539512788
27700.0,0.002403746451482977
27800.0,0.002403747491841165
27900.0,0.0024037485164321603
28000.0,0.002403749525478334
28100.0,0.002403750519213466
28200.0,0.0024037514978814518
28300.0,0.0024037524617197717
28400.0,0.002403753368502012
28500.0,0.0024037542375184356
28600.0,0.002403755086185364
28700.0,0.0024037559186755484
28800.0,0.0024037567378763797
28900.0,0.00240375754461616
29000.0,0.0024037583393994684
29100.0,0.0024037591240858207
29200.0,0.0024037598981309014
29300.0,0.0024037606608194855
29400.0,0.002403761412016164
29500.0,0.002403762151828823
29600.0,0.0024037628804275332
29700.0,0.002403763597987562
29800.0,0.0024037643046790212
29900.0,0.0024037650006654876
30000.0,0.002403765686100725
30100.0,0.0024037663611435485
30200.0,0.0024037670259592315
30300.0,0.002403767680706904
30400.0,0.002403768325539602
30500.0,0.0024037689606068516
30600.0,0.0024037695860561286
30700.0,0.0024037702020330417
30800.0,0.002403770808681118
30900.0,0.0024037714061416835
31000.0,0.002403771994553879
31100.0,0.0024037725740547237
31200.0,0.0024037731447791636
31300.0,0.002403773706860108
31400.0,0.0024037742604284544
31500.0,0.0024037748056146254
31600.0,0.0024037753425542627
31700.0,0.002403775871368646
31800.0,0.002403776392174557
31900.0,0.002403776905084933
32000.0,0.002403777410218435
32100.0,0.002403777907698853
32200.0,0.002403778397646721
32300.0,0.0024037788801840447
32400.0,0.002403779355419562
32500.0,0.0024037798234580452
32600.0,0.0024037802844009246
32700.0,0.002403780738354836
32800.0,0.002403781185431031
32900.0,0.0024037816257378376
33000.0,0.002403782059384898
33100.0,0.002403782486469935
33200.0,0.0024037829070871057
33300.0,0.002403783321327565
33400.0,0.0024037837292871455
33500.0,0.0024037841310658296
33600.0,0.0024037845267609686
33700.0,0.0024037849164710986
33800.0,0.0024037853002840414
33900.0,0.0024037856782844168
34000.0,0.0024037860505541435
34100.0,0.0024037864171793455
34200.0,0.002403786778249876
34300.0,0.002403787133853225
34400.0,0.002403787484077945
34500.0,0.00240378782900296
34600.0,0.002403788168704318
34700.0,0.0024037885032556377
34800.0,0.0024037888327343186
34900.0,0.00240378915722111
35000.0,0.002403789476794639
35100.0,0.0024037897915344868
35200.0,0.002403790101511581
35300.0,0.0024037904067950766
35400.0,0.00240379070745502
35500.0,0.002403791003561216
35600.0,0.0024037912951826246
35700.0,0.0024037915823871894
35800.0,0.0024037918652418154
35900.0,0.0024037921438116163
36000.0,0.0024037924181580547
36100.0,0.0024037926883447324
36200.0,0.00240379295443783
36300.0,0.0024037932165017943
36400.0,0.002403793474601897
36500.0,0.002403793728796313
36600.0,0.0024037939791417564
36700.0,0.0024037942256956712
36800.0,0.0024037944685153
36900.0,0.0024037947076571945
37000.0,0.002403794943177073
37100.0,0.0024037951751297994
37200.0,0.002403795403568772
37300.0,0.0024037956285443926
37400.0,0.0024037958501088186
37500.0,0.002403796068316321
37600.0,0.00240379628321975
37700.0,0.0024037964948726317
37800.0,0.0024037967033226732
37900.0,0.0024037969086158364
38000.0,0.002403797110796616
38100.0,0.002403797309911788
38200.0,0.002403797506010155
38300.0,0.002403797699139233
38400.0,0.00240379788934712
38500.0,0.0024037980766766806
38600.0,0.0024037982611697086
38700.0,0.0024037984428685374
38800.0,0.002403798621815353
38900.0,0.0024037987980513455
39000.0,0.0024037989716154096
39100.0,0.0024037991425477916
39200.0,0.0024037993108903654
39300.0,0.0024037994766839036
39400.0,0.0024037996399697004
39500.0,0.0024037998007845605
39600.0,0.002403799959164366
39700.0,0.002403800115145458
39800.0,0.002403800268764053
39900.0,0.002403800420055928
40000.0,0.0024038005690563344
40100.0,0.0024038007157999824
40200.0,0.002403800860321054
40300.0,0.0024038010026532133
40400.0,0.0024038011428296115
40500.0,0.0024038012808825183
40600.0,0.0024038014168423936
40700.0,0.0024038015507407587
40800.0,0.0024038016826104123
40900.0,0.002403801812483294
41000.0,0.002403801940391752
41100.0,0.0024038020663646182
41200.0,0.0024038021904299995
41300.0,0.0024038023126163647
41400.0,0.002403802432952083
41500.0,0.0024038025514651813
41600.0,0.0024038026681832726
41700.0,0.0024038027831335476
41800.0,0.0024038028963427834
41900.0,0.002403803007837349
42000.0,0.002403803117643215
42100.0,0.002403803225785659
42200.0,0.002403803332288542
42300.0,0.002403803437176556
42400.0,0.0024038035404753935
42500.0,0.002403803642210074
42600.0,0.0024038037424059387
42700.0,0.002403803841085572
42800.0,0.0024038039382709916
42900.0,0.0024038040339844973
43000.0,0.002403804128248314
43100.0,0.0024038042210843954
43200.0,0.002403804312514372
43300.0,0.0024038044025595437
43400.0,0.002403804491240886
43500.0,0.002403804578579055
43600.0,0.0024038046645943954
43700.0,0.0024038047493067072
43800.0,0.0024038048327346823
43900.0,0.002403804914897663
44000.0,0.002403804995815775
44100.0,0.002403805075508619
44200.0,0.0024038051539960435
44300.0,0.002403805231295741
44400.0,0.0024038053074249585
44500.0,0.0024038053824011656
44600.0,0.0024038054562417707
44700.0,0.0024038055289639713
44800.0,0.0024038056005847123
44900.0,0.0024038056711206783
45000.0,0.0024038057405883005
45100.0,0.00240380580900376
45200.0,0.0024038058763829933
45300.0,0.0024038059427415105
45400.0,0.002403806008093954
45500.0,0.002403806139895701
45600.0,0.0024038063384447536
45700.0,0.0024038065337241544
45800.0,0.0024038067259400183
45900.0,0.002403806915208837
46000.0,0.0024038071015989614
46100.0,0.002403807285163716
46200.0,0.0024038074659510503
46300.0,0.0024038076440060373
46400.0,0.0024038078193718
46500.0,0.002403807992090039
46600.0,0.0024038081622013616
46700.0,0.002403808330006583
46800.0,0.002403808495304488
46900.0,0.002403808658476633
47000.0,0.0024038088190428673
47100.0,0.002403808976976283
47200.0,0.0024038091322733327
47300.0,0.002403809285187575
47400.0,0.0024038094360233236
47500.0,0.0024038095846041197
47600.0,0.0024038097312742792
47700.0,0.002403809875602261
47800.0,0.00240381001756377
47900.0,0.002403810157155573
48000.0,0.002403810294605558
48100.0,0.0024038104301872527
48200.0,0.0024038105637420423
48300.0,0.002403810695579419
48400.0,0.0024038108253114808
48500.0,0.0024038109529163905
48600.0,0.0024038110783912406
48700.0,0.002403811201940874
48800.0,0.0024038113238111546
48900.0,0.002403811443859509
49000.0,0.002403811562364132
49100.0,0.0024038116789763487
49200.0,0.0024038117936765304
49300.0,0.002403811906462064
49400.0,0.002403812017517076
49500.0,0.002403812127062568
49600.0,0.002403812234970384
49700.0,0.0024038123414905836
49800.0,0.002403812446309756
49900.0,0.0024038125494102564
50000.0,0.002403812650789736
50100.0,0.0024038127506137
50200.0,0.0024038128490808017
50300.0,0.002403812946075845
50400.0,0.002403813041823601
50500.0,0.002403813136042354
50600.0,0.0024038132287162433
50700.0,0.002403813319843158
50800.0,0.0024038134095718667
50900.0,0.002403813498080932
51000.0,0.002403813585266807
51100.0,0.002403813671331533
51200.0,0.002403813756021884
51300.0,0.002403813839323603
51400.0,0.0024038139212347927
51500.0,0.002403814001889177
51600.0,0.0024038140814472593
51700.0,0.0024038141598159667
51800.0,0.002403814237176906
51900.0,0.002403814313302461
52000.0,0.002403814388179816
52100.0,0.002403814461807267
52200.0,0.0024038145343050123
52300.0,0.0024038146058173258
52400.0,0.0024038146762605447
52500.0,0.0024038147457979124
52600.0,0.0024038148142248297
52700.0,0.0024038148815297778
52800.0,0.0024038149477112244
52900.0,0.0024038150128772133
53000.0,0.0024038150771574264
53100.0,0.0024038151404766634
53200.0,0.0024038152029816576
53300.0,0.002403815264488502
53400.0,0.0024038153249868427
53500.0,0.002403815384475301
53600.0,0.0024038154430509953
53700.0,0.002403815500830493
53800.0,0.0024038155577461987
53900.0,0.002403815613930006
54000.0,0.0024038156692166067
54100.0,0.0024038157235966935
54200.0,0.0024038157770690286
54300.0,0.0024038158297209076
54400.0,0.00240381588165711
54500.0,0.0024038159328168755
54600.0,0.00240381598331876
54700.0,0.0024038160330141726
54800.0,0.002403816081894748
54900.0,0.0024038161299593727
55000.0,0.002403816177286515
55100.0,0.002403816223970357
55200.0,0.0024038162699562835
55300.0,0.002403816315350861
55400.0,0.0024038163600205256
55500.0,0.0024038164039577583
55600.0,0.002403816447161558
55700.0,0.002403816489702457
55800.0,0.002403816531665113
55900.0,0.0024038165730004345
56000.0,0.00240381661380421
56100.0,0.0024038166539563843
56200.0,0.0024038166934501975
56300.0,0.00240381673228475
56400.0,0.002403816770523441
56500.0,0.002403816808242368
56600.0,0.002403816845397403
56700.0,0.002403816882074648
56800.0,0.0024038169181661885
56900.0,0.0024038169536659483
57000.0,0.0024038169885731192
57100.0,0.0024038170229446886
57200.0,0.002403817056849058
57300.0,0.002403817090246562
57400.0,0.0024038171232145956
57500.0,0.002403817155656157
57600.0,0.0024038171875657858
57700.0,0.0024038172189427536
57800.0,0.0024038172498382867
57900.0,0.002403817280313868
58000.0,0.002403817310333843
58100.0,0.0024038173399677813
58200.0,0.00240381736912849
58300.0,0.0024038173978110596
58400.0,0.0024038174260148384
58500.0,0.002403817453785869
58600.0,0.0024038174811794183
58700.0,0.002403817508163438
58800.0,0.0024038175348004604
58900.0,0.0024038175610121113
59000.0,0.0024038175867939784
59100.0,0.0024038176121454744
59200.0,0.0024038176371079874
59300.0,0.002403817661731193
59400.0,0.0024038176859862864
59500.0,0.0024038177099294736
59600.0,0.002403817733490308
59700.0,0.0024038177566648227
59800.0,0.0024038177794524908
59900.0,0.0024038178018905136
60000.0,0.0024038178240235446
60100.0,0.0024038178458256894
60200.0,0.0024038178673474724
60300.0,0.0024038178885255703
60400.0,0.002403817909356418
60500.0,0.00240381792983954
60600.0,0.0024038179500083775
60700.0,0.002403817969872084
60800.0,0.002403817989435954
60900.0,0.0024038180087346426
61000.0,0.002403818027745008
61100.0,0.002403818046510913
61200.0,0.0024038180649771325
61300.0,0.002403818083140563
61400.0,0.0024038181010007935
61500.0,0.0024038181185869834
61600.0,0.002403818135907115
61700.0,0.0024038181529658044
61800.0,0.0024038181697932687
61900.0,0.00240381818636933
62000.0,0.002403818202732235
62100.0,0.002403818218833829
62200.0,0.0024038182346714063
62300.0,0.0024038182502446096
62400.0,0.002403818265578863
62500.0,0.002403818280681127
62600.0,0.002403818295555427
62700.0,0.0024038183102281113
62800.0,0.0024038183246815844
62900.0,0.002403818338949196
63000.0,0.0024038183529889578
63100.0,0.002403818366798511
63200.0,0.002403818380377543
63300.0,0.0024038183937482235
63400.0,0.002403818406916621
63500.0,0.0024038184198862454
63600.0,0.002403818432680071
63700.0,0.0024038184452827563
63800.0,0.0024038184577233794
63900.0,0.0024038184699653295
64000.0,0.002403818482006549
64100.0,0.0024038184938467663
64200.0,0.002403818505505312
64300.0,0.0024038185169874765
64400.0,0.0024038185282963215
64500.0,0.0024038185394345242
64600.0,0.0024038185504046687
64700.0,0.002403818561209293
64800.0,0.002403818571850894
64900.0,0.002403818582331932
65000.0,0.0024038185926548296
65100.0,0.0024038186028219723
65200.0,0.002403818612835711
65300.0,0.002403818622698359
65400.0,0.002403818632412197
65500.0,0.0024038186419794703
65600.0,0.00240381865140239
65700.0,0.0024038186606831348
65800.0,0.0024038186698238486
65900.0,0.002403818678826645
66000.0,0.002403818687693605
66100.0,0.002403818696426778
66200.0,0.0024038187050281824
66300.0,0.002403818713499807
66400.0,0.002403818721843609
66500.0,0.0024038187300615176
66600.0,0.0024038187381554325
66700.0,0.002403818746127224
66800.0,0.0024038187539787356
66900.0,0.002403818761711781
67000.0,0.0024038187693281483
67100.0,0.002403818776829598
67200.0,0.0024038187842178637
67300.0,0.002403818791494653
67400.0,0.002403818798661649
67500.0,0.0024038188057205066
67600.0,0.002403818812672859
67700.0,0.0024038188195203117
67800.0,0.0024038188262644486
67900.0,0.0024038188329068284
68000.0,0.002403818839448986
