M.D_b.CO2aq Time [a],M.D_b.CO2aq CO2aq [mol/kg]
0.0,2.7752245451387457e-05
100.0,2.7851991366292008e-05
200.0,2.7904082341780667e-05
300.0,2.7928089595689785e-05
400.0,2.7936755445469196e-05
500.0,2.793807003085475e-05
600.0,2.7935483953400255e-05
700.0,2.7931010038302096e-05
800.0,2.7925730810198884e-05
900.0,2.7920169399590015e-05
1000.0,2.7914721391329106e-05
1100.0,2.790941727614849e-05
1200.0,2.7904238238941252e-05
1300.0,2.7899200977540367e-05
1400.0,2.78945400724211e-05
1500.0,2.7890154782874332e-05
1600.0,2.788598065504138e-05
1700.0,2.7881942444854968e-05
1800.0,2.7878367673619364e-05
1900.0,2.7875104581465053e-05
2000.0,2.7871982261707144e-05
2100.0,2.7869008344858543e-05
2200.0,2.786605779329146e-05
2300.0,2.7863137109363055e-05
2400.0,2.786025077014623e-05
2500.0,2.785740395366283e-05
2600.0,2.7854595278312298e-05
2700.0,2.7851704796012477e-05
2800.0,2.7848733470706787e-05
2900.0,2.784569220225921e-05
3000.0,2.784258146881798e-05
3100.0,2.783940688101392e-05
3200.0,2.783616425935022e-05
3300.0,2.783286416768251e-05
3400.0,2.782949895383713e-05
3500.0,2.7826190798616944e-05
3600.0,2.782282177071764e-05
3700.0,2.7819506754683432e-05
3800.0,2.781625272207841e-05
3900.0,2.781292637228615e-05
4000.0,2.7809535766520566e-05
4100.0,2.780607784584327e-05
4200.0,2.7802805139773943e-05
4300.0,2.7799832252910162e-05
4400.0,2.7797020552313545e-05
4500.0,2.7794358510979396e-05
4600.0,2.779184878344811e-05
4700.0,2.778948223236228e-05
4800.0,2.778726229895111e-05
4900.0,2.778506291725428e-05
5000.0,2.7783005766422182e-05
5100.0,2.7781093159723395e-05
5200.0,2.7779200898847484e-05
5300.0,2.777744732704599e-05
5400.0,2.7775831209161082e-05
5500.0,2.77742313300361e-05
5600.0,2.777265137878057e-05
5700.0,2.777108551362027e-05
5800.0,2.7769538065493966e-05
5900.0,2.7767895855634853e-05
6000.0,2.776615113406049e-05
6100.0,2.7764318164949902e-05
6200.0,2.776228039532662e-05
6300.0,2.7760235479573383e-05
6400.0,2.7758366203519515e-05
6500.0,2.7756545806740756e-05
6600.0,2.7754772590854714e-05
6700.0,2.775314770825554e-05
6800.0,2.7751662608365578e-05
6900.0,2.7750194602332296e-05
7000.0,2.7748746017094616e-05
7100.0,2.774742996990512e-05
7200.0,2.7746247286146395e-05
7300.0,2.7745076041757017e-05
7400.0,2.774391911332631e-05
7500.0,2.7742775567833764e-05
7600.0,2.7741641684532578e-05
7700.0,2.7740521025362383e-05
7800.0,2.7739300132170954e-05
7900.0,2.7737853287504167e-05
8000.0,2.773638829799809e-05
8100.0,2.7735088115995265e-05
8200.0,2.7733825855457232e-05
8300.0,2.773259489026081e-05
8400.0,2.7731388105835758e-05
8500.0,2.773031924631989e-05
8600.0,2.7729384987347284e-05
8700.0,2.7728456480140525e-05
8800.0,2.772753624588216e-05
8900.0,2.772662913888327e-05
9000.0,2.7725736345595456e-05
9100.0,2.7724855445085578e-05
9200.0,2.772398163887309e-05
9300.0,2.772311512939171e-05
9400.0,2.7722138969832115e-05
9500.0,2.772105602703326e-05
9600.0,2.7719877850357503e-05
9700.0,2.7718593244478398e-05
9800.0,2.771733439191445e-05
9900.0,2.771598272048428e-05
10000.0,2.7714535079645467e-05
10100.0,2.771299783592829e-05
10200.0,2.7711364184942666e-05
10300.0,2.770976569084644e-05
10400.0,2.770807719990948e-05
10500.0,2.770641570228241e-05
10600.0,2.7704789851009614e-05
10700.0,2.7703066533562973e-05
10800.0,2.770125708397953e-05
10900.0,2.7699473158041377e-05
11000.0,2.769772638476653e-05
11100.0,2.76958840086808e-05
11200.0,2.7694194920301196e-05
11300.0,2.7692658249717593e-05
11400.0,2.7691143255272306e-05
11500.0,2.7689647715356816e-05
11600.0,2.768841558536725e-05
11700.0,2.7687446856877802e-05
11800.0,2.768647548374667e-05
11900.0,2.7685507030732412e-05
12000.0,2.7684545903573012e-05
12100.0,2.7683594803516827e-05
12200.0,2.7682775327712877e-05
12300.0,2.7682088030888003e-05
12400.0,2.7681401876309975e-05
12500.0,2.7680719913887987e-05
12600.0,2.768004438178284e-05
12700.0,2.7679499249880112e-05
12800.0,2.7679084930168272e-05
12900.0,2.7678667566509546e-05
13000.0,2.7678253132514893e-05
13100.0,2.767784389211603e-05
13200.0,2.767743821050591e-05
13300.0,2.76771541351546e-05
13400.0,2.7676874944449036e-05
13500.0,2.7676589817696356e-05
13600.0,2.7676429738180724e-05
13700.0,2.7676266006733056e-05
13800.0,2.767610040595226e-05
13900.0,2.7675934611680635e-05
14000.0,2.767576965040596e-05
14100.0,2.767560614226017e-05
14200.0,2.7675444456965852e-05
14300.0,2.7675284809616722e-05
14400.0,2.7675127319787158e-05
14500.0,2.767497204809312e-05
14600.0,2.7674819018826934e-05
14700.0,2.767466823397501e-05
14800.0,2.7674519681899703e-05
14900.0,2.7674373342715422e-05
15000.0,2.76742291916167e-05
15100.0,2.7674087200937873e-05
15200.0,2.767394656134328e-05
15300.0,2.7673807766429345e-05
15400.0,2.767367107130758e-05
15500.0,2.767353786720353e-05
15600.0,2.7673410092465202e-05
15700.0,2.7673284739428166e-05
15800.0,2.7673162012592172e-05
15900.0,2.7673041325333998e-05
16000.0,2.7672922400905475e-05
16100.0,2.7672805232407407e-05
16200.0,2.7672689805588794e-05
16300.0,2.7672576101793175e-05
16400.0,2.767246409977977e-05
16500.0,2.7672353776851667e-05
16600.0,2.767224450368426e-05
16700.0,2.767213666343568e-05
16800.0,2.767203045369898e-05
16900.0,2.7671925851410756e-05
17000.0,2.7671822832991423e-05
17100.0,2.7671721374798505e-05
17200.0,2.767162145335762e-05
17300.0,2.7671523045461258e-05
17400.0,2.7671426128211452e-05
17500.0,2.767133067903798e-05
17600.0,2.767123667570397e-05
17700.0,2.767114409630587e-05
17800.0,2.7671050292042686e-05
17900.0,2.7670951601411664e-05
18000.0,2.7670791696517915e-05
18100.0,2.767042390581312e-05
18200.0,2.7669830222982856e-05
18300.0,2.7669014045230984e-05
18400.0,2.7667920816883712e-05
18500.0,2.766646704668716e-05
18600.0,2.7664785299379918e-05
18700.0,2.76628347944442e-05
18800.0,2.7660477584521016e-05
18900.0,2.765775975348216e-05
19000.0,2.7654857226666072e-05
19100.0,2.7652453244462617e-05
19200.0,2.765016977707417e-05
19300.0,2.7647924472621548e-05
19400.0,2.7646128081893886e-05
19500.0,2.7644424823262863e-05
19600.0,2.7642733385284194e-05
19700.0,2.764147279301885e-05
19800.0,2.764028682613266e-05
19900.0,2.7639105770842386e-05
20000.0,2.7637931878943304e-05
20100.0,2.7636980907237113e-05
20200.0,2.7636071235417417e-05
20300.0,2.763537226674035e-05
20400.0,2.7634707966964312e-05
20500.0,2.763425470780459e-05
20600.0,2.7633832463632974e-05
20700.0,2.763340495720309e-05
20800.0,2.7632976470373244e-05
20900.0,2.7632549838375086e-05
21000.0,2.7632126808104486e-05
21100.0,2.7631708418978464e-05
21200.0,2.7631506810664152e-05
21300.0,2.763133920025262e-05
21400.0,2.7631166301925352e-05
21500.0,2.7630990991102785e-05
21600.0,2.763081522469484e-05
21700.0,2.763064019612124e-05
21800.0,2.763047149827714e-05
21900.0,2.7630305344490304e-05
22000.0,2.7630141079189544e-05
22100.0,2.7630190181923606e-05
22200.0,2.7630269864672812e-05
22300.0,2.7630340815497644e-05
22400.0,2.7630405842231e-05
22500.0,2.7630466883753953e-05
22600.0,2.7630520273798112e-05
22700.0,2.7630570978562636e-05
22800.0,2.7630620374849248e-05
22900.0,2.763066869324517e-05
23000.0,2.763071607617515e-05
23100.0,2.763076261590879e-05
23200.0,2.7630808373582382e-05
23300.0,2.763085339105022e-05
23400.0,2.763089769808524e-05
23500.0,2.7631152418616977e-05
23600.0,2.7631434872690782e-05
23700.0,2.7631705673070597e-05
23800.0,2.7631967629269137e-05
23900.0,2.763222269387068e-05
24000.0,2.7632472093581518e-05
24100.0,2.7632716607951607e-05
24200.0,2.7632956740199396e-05
24300.0,2.763319282233063e-05
24400.0,2.7633425080067582e-05
24500.0,2.7633653673020163e-05
24600.0,2.7633878719558103e-05
24700.0,2.7634100312216338e-05
24800.0,2.7634318527239866e-05
24900.0,2.763453503505616e-05
25000.0,2.7634748281541073e-05
25100.0,2.763495827955329e-05
25200.0,2.7635165082896665e-05
25300.0,2.7635365696194676e-05
25400.0,2.76355612117464e-05
25500.0,2.7635550009477733e-05
25600.0,2.7635710781686762e-05
25700.0,2.763570454193975e-05
25800.0,2.7635867656614835e-05
25900.0,2.7635861942773895e-05
26000.0,2.7636033671721e-05
26100.0,2.7636239075723873e-05
26200.0,2.7636437070205556e-05
26300.0,2.7636629222523312e-05
26400.0,2.7636816713170892e-05
26500.0,2.7637000286313636e-05
26600.0,2.7637180417395538e-05
26700.0,2.7637357415929613e-05
26800.0,2.7637531488621092e-05
26900.0,2.7637702778322668e-05
27000.0,2.76378713881289e-05
27100.0,2.7638037396292164e-05
27200.0,2.7638200865462432e-05
27300.0,2.7638361848412414e-05
27400.0,2.7638520391587293e-05
27500.0,2.7638677699441563e-05
27600.0,2.763883264546394e-05
27700.0,2.7638985235933434e-05
27800.0,2.7639135507752006e-05
27900.0,2.7639283497153898e-05
28000.0,2.7639429239400826e-05
28100.0,2.763957276893386e-05
28200.0,2.763971411950237e-05
28300.0,2.7639853324253232e-05
28400.0,2.763999041578573e-05
28500.0,2.7640254430528844e-05
28600.0,2.7640469159991726e-05
28700.0,2.7640794748710157e-05
28800.0,2.7641148441417017e-05
28900.0,2.7641491628536382e-05
29000.0,2.764162426359626e-05
29100.0,2.7641722569392607e-05
29200.0,2.7641825175764837e-05
29300.0,2.7641929988258984e-05
29400.0,2.7642035539018306e-05
29500.0,2.764214093343837e-05
29600.0,2.7642245627809857e-05
29700.0,2.7642349294744747e-05
29800.0,2.7642451740479114e-05
29900.0,2.764255285382195e-05
30000.0,2.7642652574580298e-05
30100.0,2.7642750874015137e-05
30200.0,2.7642847742740922e-05
30300.0,2.7642943183232705e-05
30400.0,2.764303720518738e-05
30500.0,2.7643129822652363e-05
30600.0,2.7643221052248554e-05
30700.0,2.7643310911886425e-05
30800.0,2.76433994208262e-05
30900.0,2.7643486598193047e-05
31000.0,2.7643572463334734e-05
31100.0,2.764365703560329e-05
31200.0,2.764374033421653e-05
31300.0,2.7643822378200385e-05
31400.0,2.764390318635426e-05
31500.0,2.7643982777231973e-05
31600.0,2.7644272258879793e-05
31700.0,2.764437787893643e-05
31800.0,2.7644654014388773e-05
31900.0,2.7644955380330865e-05
32000.0,2.764524590417793e-05
32100.0,2.764552858830741e-05
32200.0,2.7645804882320977e-05
32300.0,2.764607569820721e-05
32400.0,2.7646341622852646e-05
32500.0,2.7646603042064305e-05
32600.0,2.764686021693217e-05
32700.0,2.7647113330035695e-05
32800.0,2.7647362518289992e-05
32900.0,2.764740582351498e-05
33000.0,2.764762027416055e-05
33100.0,2.7647666705830187e-05
33200.0,2.7647679677175142e-05
33300.0,2.7647697785403848e-05
33400.0,2.7647719099778613e-05
33500.0,2.7647742243353583e-05
33600.0,2.764776636897696e-05
33700.0,2.764779095511475e-05
33800.0,2.7647815681181203e-05
33900.0,2.7647840350844973e-05
34000.0,2.764786484466173e-05
34100.0,2.764788909076878e-05
34200.0,2.7647913046742635e-05
34300.0,2.7647936688363465e-05
34400.0,2.764796000265643e-05
34500.0,2.764798298358179e-05
34600.0,2.7648005629365782e-05
34700.0,2.7648027940837385e-05
34800.0,2.7648049920449807e-05
34900.0,2.7648071571574913e-05
35000.0,2.764809289815714e-05
35100.0,2.7648113904465836e-05
35200.0,2.7648134594941817e-05
35300.0,2.7648154974105038e-05
35400.0,2.76481750464978e-05
35500.0,2.7648405899382228e-05
35600.0,2.764845376131343e-05
35700.0,2.7648673023763467e-05
35800.0,2.7648923213562758e-05
35900.0,2.7649164067013968e-05
36000.0,2.764939766125152e-05
36100.0,2.7649625495971867e-05
36200.0,2.764984364581182e-05
36300.0,2.7650056924655373e-05
36400.0,2.7650266634094155e-05
36500.0,2.7650472970213577e-05
36600.0,2.7650676067642405e-05
36700.0,2.765087602660977e-05
36800.0,2.765107292760484e-05
36900.0,2.7651266836292764e-05
37000.0,2.7651457809947046e-05
37100.0,2.7651647298391117e-05
37200.0,2.7651833946432137e-05
37300.0,2.7652017762067373e-05
37400.0,2.7652198790174174e-05
37500.0,2.7652377074430578e-05
37600.0,2.7652552657262892e-05
37700.0,2.7652725580049838e-05
37800.0,2.7652895883306365e-05
37900.0,2.765306360680754e-05
38000.0,2.7653228789664193e-05
38100.0,2.7653265047884e-05
38200.0,2.765334214478234e-05
38300.0,2.765330638899161e-05
38400.0,2.765344177901726e-05
38500.0,2.7653408260462842e-05
38600.0,2.7653543385083983e-05
38700.0,2.7653509129224258e-05
38800.0,2.76534410963508e-05
38900.0,2.765337846827228e-05
39000.0,2.7653521801789353e-05
39100.0,2.765349285267016e-05
39200.0,2.7653428146668066e-05
39300.0,2.7653367621103055e-05
39400.0,2.7653512299060715e-05
39500.0,2.765348422447176e-05
39600.0,2.765342010173679e-05
39700.0,2.7653359978141653e-05
39800.0,2.765350494502701e-05
39900.0,2.765347708875351e-05
40000.0,2.7653413140338137e-05
40100.0,2.7653353162990786e-05
40200.0,2.76534982580422e-05
40300.0,2.7653470515677128e-05
40400.0,2.765340667824244e-05
40500.0,2.765354893478125e-05
40600.0,2.7653519170477423e-05
40700.0,2.765345382095946e-05
40800.0,2.7653392755431616e-05
40900.0,2.7653536962496227e-05
41000.0,2.765350845377955e-05
41100.0,2.7653443930907396e-05
41200.0,2.7653383426115688e-05
41300.0,2.765352802853597e-05
41400.0,2.765349981208066e-05
41500.0,2.7653435517317503e-05
41600.0,2.7653375199912535e-05
41700.0,2.7653519962849277e-05
41800.0,2.765370303095888e-05
41900.0,2.765387839369387e-05
42000.0,2.7654046729286225e-05
42100.0,2.7654209812209883e-05
42200.0,2.7654368759850733e-05
42300.0,2.765451940837e-05
42400.0,2.7654666417386684e-05
42500.0,2.765481098678966e-05
42600.0,2.7654953244828463e-05
42700.0,2.765509327868408e-05
42800.0,2.7655231154397657e-05
42900.0,2.765536692463488e-05
43000.0,2.765550063357828e-05
43100.0,2.7655632319975923e-05
43200.0,2.7655762019036892e-05
43300.0,2.7655890711218685e-05
43400.0,2.7656017477701497e-05
43500.0,2.7656142322639887e-05
43600.0,2.765626436694741e-05
43700.0,2.7656384552812432e-05
43800.0,2.7656503808371145e-05
43900.0,2.7656621283143632e-05
44000.0,2.765673697944902e-05
44100.0,2.7656850923568977e-05
44200.0,2.7656963141829343e-05
44300.0,2.7657073660302822e-05
44400.0,2.7657182497636062e-05
44500.0,2.7657289683399355e-05
44600.0,2.76573952459973e-05
44700.0,2.7657499210469996e-05
44800.0,2.7657601604369074e-05
44900.0,2.7657702450206614e-05
45000.0,2.7657801769461054e-05
45100.0,2.7657899584585856e-05
45200.0,2.7657995918137072e-05
45300.0,2.765809079247805e-05
45400.0,2.7658184223611177e-05
45500.0,2.765827623691634e-05
45600.0,2.7658366856774073e-05
45700.0,2.765845610467916e-05
45800.0,2.7658544004289995e-05
45900.0,2.7658630574934226e-05
46000.0,2.7658715835050017e-05
46100.0,2.7658799803914292e-05
46200.0,2.7658882500892284e-05
46300.0,2.765896394518325e-05
46400.0,2.7659044150525396e-05
46500.0,2.7659123138708205e-05
46600.0,2.7659200930663306e-05
46700.0,2.7659177140848875e-05
46800.0,2.7659184558170986e-05
46900.0,2.7659125122968743e-05
47000.0,2.7659116896724052e-05
47100.0,2.7659200703018174e-05
47200.0,2.765907644578539e-05
47300.0,2.7659127964750488e-05
47400.0,2.7659210313593083e-05
47500.0,2.7659084850313066e-05
47600.0,2.7659135825030474e-05
47700.0,2.7659015608989013e-05
47800.0,2.765906974639672e-05
47900.0,2.765915888578719e-05
48000.0,2.7659035573719925e-05
48100.0,2.7659087522330885e-05
48200.0,2.7659175227778502e-05
48300.0,2.7659050947961264e-05
48400.0,2.7659102218198997e-05
48500.0,2.765918942617556e-05
48600.0,2.7659064761153336e-05
48700.0,2.7659115717118986e-05
48800.0,2.76592026565361e-05
48900.0,2.7659077751531156e-05
49000.0,2.7659128486551833e-05
49100.0,2.7659210352295208e-05
49200.0,2.7659084594253542e-05
49300.0,2.765913539080936e-05
49400.0,2.7659015068388266e-05
49500.0,2.765906914415545e-05
49600.0,2.7659158249255724e-05
49700.0,2.7659034919880783e-05
49800.0,2.7659086861839126e-05
49900.0,2.7659174566873276e-05
50000.0,2.765905029055877e-05
50100.0,2.7659101566862536e-05
50200.0,2.7659188782134914e-05
50300.0,2.7659064125222433e-05
50400.0,2.765911508994201e-05
50500.0,2.765920203815774e-05
50600.0,2.7659077142031868e-05
50700.0,2.765912788612435e-05
50800.0,2.7659209760713516e-05
50900.0,2.7659084011486343e-05
51000.0,2.7659134816768664e-05
51100.0,2.765901450295464e-05
51200.0,2.765906858820069e-05
51300.0,2.7659157708281785e-05
51400.0,2.7659034386935093e-05
51500.0,2.765908633114144e-05
51600.0,2.7659174049686953e-05
51700.0,2.7659049781171868e-05
51800.0,2.765910105945413e-05
51900.0,2.765918828794081e-05
52000.0,2.7659063638514164e-05
52100.0,2.7659114604890757e-05
52200.0,2.7659201565997465e-05
52300.0,2.7659076677033498e-05
52400.0,2.765912742329527e-05
52500.0,2.7659209309723542e-05
52600.0,2.765929475181309e-05
52700.0,2.765937808707798e-05
52800.0,2.765945851962901e-05
52900.0,2.765953671429167e-05
53000.0,2.7659613096691217e-05
53100.0,2.7659687936526464e-05
53200.0,2.7659761407083888e-05
53300.0,2.765983362190642e-05
53400.0,2.765990465745269e-05
53500.0,2.7659974567120405e-05
53600.0,2.766004338993143e-05
53700.0,2.766011115591222e-05
53800.0,2.7660177889428908e-05
53900.0,2.7660243611254114e-05
54000.0,2.7660308339848774e-05
54100.0,2.7660372092158096e-05
54200.0,2.7660434884105157e-05
54300.0,2.7660496730898248e-05
54400.0,2.766055764713118e-05
54500.0,2.7660617647252712e-05
54600.0,2.766067674515946e-05
54700.0,2.7660734954508578e-05
54800.0,2.766079228872619e-05
54900.0,2.766084876100976e-05
55000.0,2.766090438434161e-05
55100.0,2.7660959171498838e-05
55200.0,2.766101313505998e-05
55300.0,2.766106628741051e-05
55400.0,2.7661118640747622e-05
55500.0,2.766117020708346e-05
55600.0,2.766122099824865e-05
55700.0,2.7661271025895803e-05
55800.0,2.7661320301501683e-05
55900.0,2.766136883637044e-05
56000.0,2.766141664163632e-05
56100.0,2.7661463728266292e-05
56200.0,2.766151010706215e-05
56300.0,2.766155578866332e-05
56400.0,2.7661600783508952e-05
56500.0,2.7661645101996112e-05
56600.0,2.7661688754265242e-05
56700.0,2.766173175032255e-05
56800.0,2.7661774100031737e-05
56900.0,2.766181581310856e-05
57000.0,2.7661856899122373e-05
57100.0,2.7661897367498833e-05
57200.0,2.766193722752207e-05
57300.0,2.766197648833663e-05
57400.0,2.766201515894932e-05
57500.0,2.7662053248232013e-05
57600.0,2.766209076492307e-05
57700.0,2.7662127717629303e-05
57800.0,2.7662164114828536e-05
57900.0,2.7662199964870827e-05
58000.0,2.7662235275981003e-05
58100.0,2.7662270056260222e-05
58200.0,2.766230431368784e-05
58300.0,2.7662338056123327e-05
58400.0,2.766237129128569e-05
58500.0,2.7662404026840986e-05
58600.0,2.7662436270284845e-05
58700.0,2.766246802901037e-05
58800.0,2.7662499310304183e-05
58900.0,2.7662530121342955e-05
59000.0,2.766256046919562e-05
59100.0,2.766259036082493e-05
59200.0,2.766261980308877e-05
59300.0,2.7662648802742187e-05
59400.0,2.766267736643861e-05
59500.0,2.7662705500731447e-05
59600.0,2.7662733212075707e-05
59700.0,2.766276050682915e-05
59800.0,2.7662787391254154e-05
59900.0,2.7662813871518906e-05
60000.0,2.7662839953698897e-05
60100.0,2.7662865643778376e-05
60200.0,2.76628909476514e-05
60300.0,2.7662915871123787e-05
60400.0,2.76629404199017e-05
60500.0,2.766296459963994e-05
60600.0,2.766298841587836e-05
60700.0,2.766301187407902e-05
60800.0,2.7663034979623902e-05
60900.0,2.7663057737814447e-05
61000.0,2.7663080153872505e-05
61100.0,2.766310223294102e-05
61200.0,2.7663123980085966e-05
61300.0,2.7663145400297053e-05
61400.0,2.7663166498488966e-05
61500.0,2.7663187279502547e-05
61600.0,2.7663207748105813e-05
61700.0,2.7663227908995193e-05
61800.0,2.7663247766796577e-05
61900.0,2.7663267326066207e-05
62000.0,2.7663286591291744e-05
62100.0,2.76633055668936e-05
62200.0,2.7663324257225538e-05
62300.0,2.766334266657616e-05
62400.0,2.7663360799162786e-05
62500.0,2.7663378659158038e-05
62600.0,2.7663396250655595e-05
62700.0,2.76634135776903e-05
62800.0,2.766343064423792e-05
62900.0,2.7663447454214556e-05
63000.0,2.766346401147699e-05
63100.0,2.766348031982446e-05
63200.0,2.766349638299887e-05
63300.0,2.7663512204685908e-05
63400.0,2.7663527788515928e-05
63500.0,2.7663543138064634e-05
63600.0,2.766355825685393e-05
63700.0,2.7663573148352918e-05
63800.0,2.766358781597848e-05
63900.0,2.766360226309622e-05
64000.0,2.766361649302091e-05
64100.0,2.766363050901776e-05
64200.0,2.7663644314302682e-05
64300.0,2.766365791204355e-05
64400.0,2.766367130535685e-05
64500.0,2.7663684497322155e-05
64600.0,2.7663697490964056e-05
64700.0,2.7663710289263427e-05
64800.0,2.766372289515699e-05
64900.0,2.7663735311537054e-05
65000.0,2.7663747541252745e-05
65100.0,2.7663759587110275e-05
65200.0,2.7663771451873573e-05
65300.0,2.7663783138265045e-05
65400.0,2.766379464896645e-05
