M.D_b.DIC Time [a],M.D_b.DIC DIC [mol/kg]
0.0,0.002291
100.0,0.0022917572151509836
200.0,0.0022921173610589546
300.0,0.0022923385328709285
400.0,0.0022924893544673136
500.0,0.002292599786896364
600.0,0.002292686950708327
700.0,0.0022927598145546842
800.0,0.00229282327280209
900.0,0.002292880433277228
1000.0,0.002292931793078382
1100.0,0.0022929795442393243
1200.0,0.0022930239553097414
1300.0,0.002293065417745283
1400.0,0.002293104269610961
1500.0,0.0022931407274121144
1600.0,0.002293175081937122
1700.0,0.002293207824079559
1800.0,0.002293237871709567
1900.0,0.0022932656053543904
2000.0,0.002293292030068013
2100.0,0.00229331708647279
2200.0,0.0022933413371897444
2300.0,0.0022933651144020854
2400.0,0.0022933885135871675
2500.0,0.0022934115381530334
2600.0,0.0022934342098501832
2700.0,0.0022934565797212815
2800.0,0.0022934786036668247
2900.0,0.0022935002881266796
3000.0,0.002293521634762391
3100.0,0.00229354269072541
3200.0,0.0022935634307597913
3300.0,0.0022935838863158186
3400.0,0.0022936040320294723
3500.0,0.0022936238759400846
3600.0,0.0022936434418944084
3700.0,0.0022936627114468746
3800.0,0.0022936817206238493
3900.0,0.002293700365366052
4000.0,0.002293718809965007
4100.0,0.0022937369829401613
4200.0,0.0022937548743744637
4300.0,0.0022937725337169746
4400.0,0.00229378990632716
4500.0,0.0022938070241250025
4600.0,0.00229382390434957
4700.0,0.002293840515934783
4800.0,0.002293856859194861
4900.0,0.0022938730145229524
5000.0,0.002293888876553487
5100.0,0.00229390449331335
5200.0,0.002293919965608538
5300.0,0.002293935154888815
5400.0,0.002293950115148275
5500.0,0.0022939649082752566
5600.0,0.002293979478229552
5700.0,0.0022939938439833826
5800.0,0.0022940079980617086
5900.0,0.0022940219419116427
6000.0,0.002294035689369393
6100.0,0.002294049233584058
6200.0,0.0022940625755581683
6300.0,0.0022940757324921538
6400.0,0.0022940886851169906
6500.0,0.0022941014414647196
6600.0,0.0022941140090176593
6700.0,0.00229412637633227
6800.0,0.0022941385432504813
6900.0,0.002294150571246117
7000.0,0.002294162411678151
7100.0,0.0022941740814316418
7200.0,0.0022941855708290392
7300.0,0.0022941969123174842
7400.0,0.0022942080990666506
7500.0,0.0022942191248429646
7600.0,0.0022942299982576806
7700.0,0.0022942406972087576
7800.0,0.0022942512494889046
7900.0,0.002294261619244799
8000.0,0.002294271804408675
8100.0,0.0022942818584573625
8200.0,0.0022942917743344706
8300.0,0.0022943015898287647
8400.0,0.002294311252218392
8500.0,0.0022943207636201006
8600.0,0.002294330129409864
8700.0,0.0022943393523758362
8800.0,0.0022943484769935366
8900.0,0.002294357438293362
9000.0,0.0022943662739737455
9100.0,0.002294374980823378
9200.0,0.002294383557133578
9300.0,0.0022943920153073766
9400.0,0.0022944003326562344
9500.0,0.0022944085274461674
9600.0,0.0022944166193303132
9700.0,0.0022944245912740364
9800.0,0.002294432419806496
9900.0,0.0022944401543060896
10000.0,0.002294447792101487
10100.0,0.002294455326124577
10200.0,0.00229446274751541
10300.0,0.0022944700350889663
10400.0,0.0022944772033744337
10500.0,0.002294484275407973
10600.0,0.002294491277799016
10700.0,0.0022944981853343376
10800.0,0.002294504974179627
10900.0,0.002294511649830089
11000.0,0.002294518220616689
11100.0,0.002294524690746045
11200.0,0.0022945310742777314
11300.0,0.0022945374014392327
11400.0,0.0022945436270981473
11500.0,0.0022945497505692065
11600.0,0.002294555778815118
11700.0,0.002294561715061408
11800.0,0.0022945675611676327
11900.0,0.0022945733186426334
12000.0,0.0022945790027187143
12100.0,0.002294584605215418
12200.0,0.0022945901105873275
12300.0,0.002294595539370903
12400.0,0.002294600894540136
12500.0,0.0022946061788404167
12600.0,0.002294611386094855
12700.0,0.0022946165149757857
12800.0,0.0022946215475567887
12900.0,0.0022946265018625083
13000.0,0.0022946314186236653
13100.0,0.0022946362524113575
13200.0,0.002294641018122687
13300.0,0.0022946457216370683
13400.0,0.0022946503624356124
13500.0,0.002294654935513342
13600.0,0.002294659419769006
13700.0,0.0022946638219026793
13800.0,0.002294668152534699
13900.0,0.0022946724158938456
14000.0,0.0022946766702042604
14100.0,0.0022946808581049975
14200.0,0.002294684983458776
14300.0,0.0022946890593046076
14400.0,0.0022946930795290236
14500.0,0.0022946970350312393
14600.0,0.0022947008790224735
14700.0,0.0022947046660636503
14800.0,0.0022947084041848942
14900.0,0.0022947120912510163
15000.0,0.0022947157239300224
15100.0,0.0022947193016992612
15200.0,0.0022947228680634344
15300.0,0.002294726392121541
15400.0,0.0022947298705545305
15500.0,0.0022947332892234613
15600.0,0.0022947366435387734
15700.0,0.00229473994202827
15800.0,0.0022947431888543763
15900.0,0.002294746385883672
16000.0,0.0022947495342318124
16100.0,0.0022947526347806024
16200.0,0.002294755688317043
16300.0,0.0022947586955807705
16400.0,0.0022947616572855625
16500.0,0.0022947645741283502
16600.0,0.002294767446720475
16700.0,0.002294770327960713
16800.0,0.002294773155376993
16900.0,0.0022947759233480653
17000.0,0.002294778647016971
17100.0,0.0022947813342185123
17200.0,0.0022947839781747976
17300.0,0.0022947865892804157
17400.0,0.002294789163220349
17500.0,0.0022947916986326995
17600.0,0.002294794195625477
17700.0,0.0022947966547386036
17800.0,0.0022947990765740545
17900.0,0.002294801461715554
18000.0,0.0022948038106922887
18100.0,0.002294806124108876
18200.0,0.0022948084024296263
18300.0,0.002294810646215103
18400.0,0.002294812849504756
18500.0,0.0022948149971604237
18600.0,0.002294817149791532
18700.0,0.002294819282301573
18800.0,0.0022948213879736036
18900.0,0.002294823460833534
19000.0,0.0022948255086125114
19100.0,0.0022948275277443163
19200.0,0.0022948295169190917
19300.0,0.0022948314760758465
19400.0,0.0022948334055670786
19500.0,0.0022948353058326715
19600.0,0.0022948371773157325
19700.0,0.0022948390204276334
19800.0,0.002294840835635063
19900.0,0.002294842623301768
20000.0,0.002294844383864577
20100.0,0.00229484611775175
20200.0,0.002294847825373056
20300.0,0.0022948495071254235
20400.0,0.002294851159449406
20500.0,0.002294852763991551
20600.0,0.002294854332491456
20700.0,0.0022948558750841143
20800.0,0.0022948573938958634
20900.0,0.002294858889580339
21000.0,0.002294860362546676
21100.0,0.002294861813165782
21200.0,0.0022948632450858187
21300.0,0.0022948647183534485
21400.0,0.0022948661683524474
21500.0,0.00229486759842534
21600.0,0.0022948690079021635
21700.0,0.002294870398890938
21800.0,0.0022948717692579065
21900.0,0.002294873122260042
22000.0,0.002294874455839785
22100.0,0.0022948757694406384
22200.0,0.0022948770631574986
22300.0,0.0022948783372654566
22400.0,0.0022948795920655777
22500.0,0.002294880827853085
22600.0,0.0022948820448987256
22700.0,0.0022948832435081357
22800.0,0.0022948844239286626
22900.0,0.0022948855864521073
23000.0,0.0022948867313595193
23100.0,0.0022948878589196856
23200.0,0.002294888969394266
23300.0,0.002294890053000632
23400.0,0.00229489109837036
23500.0,0.0022948921200320565
23600.0,0.002294893125027322
23700.0,0.002294894114584376
23800.0,0.0022948950890664672
23900.0,0.0022948960487313877
24000.0,0.0022948969938238507
24100.0,0.002294897924579182
24200.0,0.0022948988412246915
24300.0,0.0022948997439809172
24400.0,0.002294900633062407
24500.0,0.0022949015086785713
24600.0,0.0022949023710222057
24700.0,0.002294903220310978
24800.0,0.0022949040567206073
24900.0,0.002294904880458098
25000.0,0.002294905691722557
25100.0,0.0022949064907042656
25200.0,0.0022949072775884064
25300.0,0.0022949080525574914
25400.0,0.002294908815791813
25500.0,0.002294909567469153
25600.0,0.0022949103077645767
25700.0,0.0022949110618576737
25800.0,0.002294911847254332
25900.0,0.0022949126228117315
26000.0,0.0022949133879351597
26100.0,0.0022949141422870844
26200.0,0.0022949148857162875
26300.0,0.002294915618394676
26400.0,0.0022949163419104333
26500.0,0.002294917055699097
26600.0,0.002294917759067227
26700.0,0.002294918451864455
26800.0,0.002294919134173708
26900.0,0.002294919806142452
27000.0,0.0022949204679275216
27100.0,0.0022949211196835
27200.0,0.0022949217615602173
27300.0,0.002294922393699021
27400.0,0.002294923016246285
27500.0,0.002294923629354481
27600.0,0.0022949242331722097
27700.0,0.0022949248278500475
27800.0,0.0022949254135222054
27900.0,0.0022949259903179966
28000.0,0.0022949265583626067
28100.0,0.0022949271177876455
28200.0,0.002294927668730423
28300.0,0.0022949282113246356
28400.0,0.002294928723996319
28500.0,0.002294929215875653
28600.0,0.0022949296955544645
28700.0,0.002294930165168366
28800.0,0.0022949306268621587
28900.0,0.002294931081315625
29000.0,0.0022949315289145216
29100.0,0.002294931970759313
29200.0,0.00229493240657033
29300.0,0.0022949328359598785
29400.0,0.0022949332588633018
29500.0,0.0022949336753489637
29600.0,0.002294934085516984
29700.0,0.0022949344894683333
29800.0,0.002294934887299936
29900.0,0.0022949352791044575
30000.0,0.0022949356649687746
30100.0,0.002294936044982442
30200.0,0.0022949364192385896
30300.0,0.002294936787826849
30400.0,0.0022949371508333965
30500.0,0.002294937508342423
30600.0,0.0022949378604369595
30700.0,0.002294938207198983
30800.0,0.002294938548709297
30900.0,0.002294938885047465
31000.0,0.0022949392162918184
31100.0,0.002294939542519496
31200.0,0.0022949398638064684
31300.0,0.0022949401802275587
31400.0,0.002294940491856458
31500.0,0.0022949407987665903
31600.0,0.002294941101034317
31700.0,0.0022949413987279144
31800.0,0.0022949416919131266
31900.0,0.002294941980653533
32000.0,0.0022949422650159366
32100.0,0.002294942545070026
32200.0,0.002294942820883658
32300.0,0.0022949430925255166
32400.0,0.0022949433600568175
32500.0,0.002294943623536544
32600.0,0.002294943883021797
32700.0,0.0022949441385726084
32800.0,0.00229494439025161
32900.0,0.002294944638119784
33000.0,0.0022949448822388568
33100.0,0.0022949451226638405
33200.0,0.0022949453594477433
33300.0,0.0022949455926418814
33400.0,0.0022949458223002045
33500.0,0.0022949460484789986
33600.0,0.002294946271233068
33700.0,0.002294946490617886
33800.0,0.0022949467066828914
33900.0,0.0022949469194757217
34000.0,0.0022949471290424936
34100.0,0.0022949473354316914
34200.0,0.0022949475386938993
34300.0,0.0022949477388783694
34400.0,0.002294947936034953
34500.0,0.002294948130208082
34600.0,0.0022949483214405667
34700.0,0.002294948509773852
34800.0,0.00229494869525151
34900.0,0.0022949488779189994
35000.0,0.002294949057820583
35100.0,0.002294949235001062
35200.0,0.002294949409500365
35300.0,0.002294949581357424
35400.0,0.002294949750611671
35500.0,0.0022949499173024026
35600.0,0.002294950081468441
35700.0,0.002294950243148035
35800.0,0.0022949504023788486
35900.0,0.002294950559197538
36000.0,0.0022949507136387046
36100.0,0.002294950865738152
36200.0,0.002294951015533137
36300.0,0.0022949511630599405
36400.0,0.002294951308355307
36500.0,0.0022949514514519855
36600.0,0.0022949515923819047
36700.0,0.002294951731177402
36800.0,0.002294951867870702
36900.0,0.002294952002493641
37000.0,0.0022949521350775852
37100.0,0.0022949522656534205
37200.0,0.0022949523942512075
37300.0,0.00229495252089932
37400.0,0.0022949526456271198
37500.0,0.002294952768465159
37600.0,0.0022949528894431895
37700.0,0.0022949530085913435
37800.0,0.002294953125936478
37900.0,0.002294953241504467
38000.0,0.0022949533553203593
38100.0,0.002294953467410487
38200.0,0.0022949535778023227
38300.0,0.002294953686522617
38400.0,0.0022949537935984454
38500.0,0.0022949538990539387
38600.0,0.0022949540029126255
38700.0,0.0022949541051983367
38800.0,0.00229495420593482
38900.0,0.0022949543051452646
39000.0,0.002294954402851565
39100.0,0.0022949544990763793
39200.0,0.0022949545938432785
39300.0,0.0022949546871752166
39400.0,0.0022949547790954397
39500.0,0.002294954869624667
39600.0,0.0022949549587830977
39700.0,0.0022949550465911905
39800.0,0.0022949551330693333
39900.0,0.0022949552182376667
40000.0,0.002294955302116035
40100.0,0.002294955384723978
40200.0,0.0022949554660807387
40300.0,0.002294955546205268
40400.0,0.0022949556251162287
40500.0,0.0022949557028317863
40600.0,0.0022949557793690884
40700.0,0.00229495585474588
40800.0,0.002294955928980624
40900.0,0.002294956002091302
41000.0,0.0022949560740961232
41100.0,0.002294956145011319
41200.0,0.002294956214852711
41300.0,0.002294956283636327
41400.0,0.0022949563513781366
41500.0,0.0022949564180939175
41600.0,0.002294956483799214
41700.0,0.0022949565485093338
41800.0,0.00229495661223935
41900.0,0.0022949566750041068
42000.0,0.002294956736818225
42100.0,0.002294956797695934
42200.0,0.002294956857650666
42300.0,0.0022949569166963216
42400.0,0.0022949569748473646
42500.0,0.0022949570321178793
42600.0,0.002294957088522131
42700.0,0.002294957144072833
42800.0,0.0022949571987823806
42900.0,0.0022949572526633284
43000.0,0.0022949573057281856
43100.0,0.0022949573579893125
43200.0,0.0022949574094588854
43300.0,0.0022949574601488954
43400.0,0.0022949575100711496
43500.0,0.002294957559237277
43600.0,0.00229495760765873
43700.0,0.002294957655346655
43800.0,0.002294957702311574
43900.0,0.0022949577485643765
44000.0,0.002294957794116392
44100.0,0.0022949578389786537
44200.0,0.002294957883162336
44300.0,0.0022949579266773983
44400.0,0.0022949579695335505
44500.0,0.0022949580117406264
44600.0,0.0022949580533084255
44700.0,0.0022949580942466298
44800.0,0.0022949581345647774
44900.0,0.0022949581742722613
45000.0,0.0022949582133783317
45100.0,0.002294958251892097
45200.0,0.002294958289822529
45300.0,0.0022949583271783588
45400.0,0.0022949583639678287
45500.0,0.0022949584342915686
45600.0,0.002294958541024899
45700.0,0.002294958647808291
45800.0,0.0022949587541317715
45900.0,0.00229495885956896
46000.0,0.002294958963844147
46100.0,0.0022949590667983954
46200.0,0.0022949591683471982
46300.0,0.002294959268450493
46400.0,0.0022949593670942023
46500.0,0.0022949594642793255
46600.0,0.002294959560015551
46700.0,0.0022949596544635715
46800.0,0.0022949597475075516
46900.0,0.0022949598393583077
47000.0,0.002294959929744699
47100.0,0.0022949600186502163
47200.0,0.002294960106072409
47300.0,0.0022949601921535877
47400.0,0.002294960277064876
47500.0,0.0022949603607068875
47600.0,0.0022949604432733815
47700.0,0.002294960524521409
47800.0,0.002294960604437271
47900.0,0.00229496068301914
48000.0,0.0022949607603952953
48100.0,0.0022949608367197143
48200.0,0.002294960911903105
48300.0,0.0022949609861196932
48400.0,0.0022949610591511114
48500.0,0.002294961130985067
48600.0,0.0022949612016199225
48700.0,0.002294961271170993
48800.0,0.0022949613397766863
48900.0,0.0022949614073567407
49000.0,0.0022949614740677637
49100.0,0.0022949615397134726
49200.0,0.0022949616042828172
49300.0,0.0022949616677743266
49400.0,0.0022949617302916534
49500.0,0.0022949617919592095
49600.0,0.002294961852704849
49700.0,0.002294961912669342
49800.0,0.002294961971676256
49900.0,0.002294962029715658
50000.0,0.0022949620867862264
50100.0,0.0022949621429811315
50200.0,0.0022949621984122022
50300.0,0.0022949622530145904
50400.0,0.0022949623069148297
50500.0,0.0022949623599543296
50600.0,0.0022949624121241627
50700.0,0.0022949624634231404
50800.0,0.0022949625139350102
50900.0,0.0022949625637602926
51000.0,0.0022949626128406977
51100.0,0.0022949626612899614
51200.0,0.002294962708965533
51300.0,0.002294962755859387
51400.0,0.0022949628019704555
51500.0,0.0022949628473740167
51600.0,0.002294962892160425
51700.0,0.0022949629362772855
51800.0,0.0022949629798268327
51900.0,0.0022949630226809315
52000.0,0.002294963064832368
52100.0,0.002294963106280182
52200.0,0.002294963147092039
52300.0,0.0022949631873491567
52400.0,0.002294963227004438
52500.0,0.0022949632661497786
52600.0,0.0022949633046700016
52700.0,0.002294963342558623
52800.0,0.0022949633798147796
52900.0,0.002294963416499294
53000.0,0.00229496345268517
53100.0,0.0022949634883300736
53200.0,0.002294963523516607
53300.0,0.002294963558141241
53400.0,0.002294963592198148
53500.0,0.0022949636256865513
53600.0,0.002294963658661123
53700.0,0.0022949636911874845
53800.0,0.002294963723227582
53900.0,0.002294963754855665
54000.0,0.0022949637859786738
54100.0,0.0022949638165913697
54200.0,0.002294963846693056
54300.0,0.0022949638763328744
54400.0,0.00229496390556981
54500.0,0.0022949639343696577
54600.0,0.0022949639627991582
54700.0,0.0022949639907746634
54800.0,0.002294964018291464
54900.0,0.002294964045348933
55000.0,0.002294964071991244
55100.0,0.0022949640982714158
55200.0,0.0022949641241587033
55300.0,0.0022949641497130966
55400.0,0.0022949641748594074
55500.0,0.002294964199593403
55600.0,0.0022949642239145198
55700.0,0.0022949642478624632
55800.0,0.002294964271484891
55900.0,0.0022949642947541673
56000.0,0.0022949643177242155
56100.0,0.002294964340327451
56200.0,0.002294964362560069
56300.0,0.0022949643844215623
56400.0,0.0022949644059476223
56500.0,0.002294964427181086
56600.0,0.0022949644480971133
56700.0,0.002294964468744173
56800.0,0.002294964489061516
56900.0,0.0022949645090457227
57000.0,0.0022949645286963376
57100.0,0.002294964548045441
57200.0,0.0022949645671315392
57300.0,0.002294964585932303
57400.0,0.0022949646044913004
57500.0,0.002294964622753926
57600.0,0.0022949646407171053
57700.0,0.002294964658380429
57800.0,0.0022949646757727347
57900.0,0.0022949646929286316
58000.0,0.002294964709828051
58100.0,0.002294964726510154
58200.0,0.0022949647429258576
58300.0,0.0022949647590723987
58400.0,0.0022949647749494085
58500.0,0.002294964790582808
58600.0,0.002294964806003708
58700.0,0.0022949648211940676
58800.0,0.002294964836189089
58900.0,0.0022949648509446516
59000.0,0.0022949648654582724
59100.0,0.00229496487972962
59200.0,0.0022949648937819938
59300.0,0.002294964907643359
59400.0,0.0022949649212974975
59500.0,0.002294964934776053
59600.0,0.0022949649480393667
59700.0,0.0022949649610852062
59800.0,0.0022949649739132743
59900.0,0.0022949649865445136
60000.0,0.0022949649990040605
60100.0,0.002294965011277339
60200.0,0.0022949650233927902
60300.0,0.002294965035314768
60400.0,0.002294965047041265
60500.0,0.0022949650585720135
60600.0,0.002294965069925839
60700.0,0.002294965081107894
60800.0,0.0022949650921211596
60900.0,0.0022949651029851442
61000.0,0.0022949651136868203
61100.0,0.00229496512425088
61200.0,0.0022949651346462346
61300.0,0.0022949651448711376
61400.0,0.002294965154925358
61500.0,0.0022949651648253096
61600.0,0.002294965174575487
61700.0,0.002294965184178488
61800.0,0.0022949651936513236
61900.0,0.002294965202982634
62000.0,0.0022949652121939507
62100.0,0.0022949652212581654
62200.0,0.0022949652301737546
62300.0,0.002294965238940517
62400.0,0.0022949652475727656
62500.0,0.002294965256074418
62600.0,0.002294965264447741
62700.0,0.002294965272707566
62800.0,0.002294965280843989
62900.0,0.002294965288875783
63000.0,0.0022949652967793116
63100.0,0.0022949653045532463
63200.0,0.0022949653121974124
63300.0,0.0022949653197242887
63400.0,0.002294965327137292
63500.0,0.0022949653344383984
63600.0,0.002294965341640541
63700.0,0.0022949653487350824
63800.0,0.0022949653557383935
63900.0,0.002294965362629863
64000.0,0.002294965369408334
64100.0,0.002294965376073653
64200.0,0.0022949653826367018
64300.0,0.0022949653891004593
64400.0,0.002294965395466648
64500.0,0.0022949654017367753
64600.0,0.0022949654079122968
64700.0,0.0022949654139946397
64800.0,0.002294965419985211
64900.0,0.0022949654258853946
65000.0,0.0022949654316965547
65100.0,0.002294965437420035
65200.0,0.0022949654430571577
65300.0,0.002294965448609226
65400.0,0.002294965454077523
65500.0,0.002294965459463313
65600.0,0.002294965464767841
65700.0,0.002294965469992333
65800.0,0.002294965475137996
65900.0,0.0022949654802060203
66000.0,0.002294965485197577
66100.0,0.0022949654901138193
66200.0,0.002294965494955884
66300.0,0.0022949654997248907
66400.0,0.0022949655044219412
66500.0,0.0022949655090481213
66600.0,0.0022949655136045004
66700.0,0.002294965518092132
66800.0,0.0022949655225120527
66900.0,0.0022949655268652844
67000.0,0.0022949655311528335
67100.0,0.0022949655353756908
67200.0,0.0022949655395348325
67300.0,0.0022949655436312203
67400.0,0.0022949655476658002
67500.0,0.0022949655516395057
67600.0,0.002294965555553255
67700.0,0.0022949655594079518
67800.0,0.0022949655632044886
