M.D_b.pH Time [a],M.D_b.pH pH [mol/kg]
0.0,7.910226278637105
100.0,7.908797834138724
200.0,7.908061736285007
300.0,7.907732863871532
400.0,7.907624356624168
500.0,7.9076294084202
600.0,7.907688767625175
700.0,7.907775776800593
800.0,7.907872937380705
900.0,7.907972776748451
1000.0,7.908070188599143
1100.0,7.908165326974601
1200.0,7.908253498305455
1300.0,7.908337488898435
1400.0,7.908417981170973
1500.0,7.908493906044241
1600.0,7.908564305673908
1700.0,7.908629421283036
1800.0,7.908691123606395
1900.0,7.908749417919379
2000.0,7.908805882904781
2100.0,7.908857818513394
2200.0,7.908909050953488
2300.0,7.908959822316967
2400.0,7.909009912698979
2500.0,7.909059393751242
2600.0,7.909108069793051
2700.0,7.909156140282116
2800.0,7.909203359321262
2900.0,7.909249993103782
3000.0,7.9092958236557305
3100.0,7.909341035226978
3200.0,7.909385518385698
3300.0,7.909429345847417
3400.0,7.9094725204814775
3500.0,7.909514981248716
3600.0,7.909556888183572
3700.0,7.9095980324831725
3800.0,7.9096387027126775
3900.0,7.909678637392481
4000.0,7.909718033225963
4100.0,7.909756800107083
4200.0,7.909794957047865
4300.0,7.909832595782531
4400.0,7.909869639916342
4500.0,7.90990606924298
4600.0,7.9099420371121605
4700.0,7.9099773843468775
4800.0,7.910012211665581
4900.0,7.91004657136221
5000.0,7.910080299320286
5100.0,7.910113606897379
5200.0,7.910146383808313
5300.0,7.910178626102052
5400.0,7.910210428891411
5500.0,7.910241744026887
5600.0,7.9102725664185325
5700.0,7.9103028892432725
5800.0,7.910332830429902
5900.0,7.910362298593033
6000.0,7.910391193192731
6100.0,7.910419824291824
6200.0,7.910447980548965
6300.0,7.910475607931016
6400.0,7.910502894648146
6500.0,7.910529815326627
6600.0,7.910556237379698
6700.0,7.91058224997921
6800.0,7.9106079653726695
6900.0,7.910633238440811
7000.0,7.910658118095999
7100.0,7.910682606924375
7200.0,7.910706751038907
7300.0,7.910730556351386
7400.0,7.910753985375051
7500.0,7.9107769758519835
7600.0,7.910799676530425
7700.0,7.910822098495326
7800.0,7.910844163769918
7900.0,7.910865770975025
8000.0,7.910887062316807
8100.0,7.910908192204541
8200.0,7.9109289571014045
8300.0,7.9109493144670155
8400.0,7.910969360196237
8500.0,7.910989135295664
8600.0,7.911008709989427
8700.0,7.911027894669901
8800.0,7.9110467829461
8900.0,7.9110653763286365
9000.0,7.911083679418902
9100.0,7.911101776441681
9200.0,7.9111195846732185
9300.0,7.911137110807421
9400.0,7.911154360885097
9500.0,7.91117129452192
9600.0,7.911187972023763
9700.0,7.911204514116886
9800.0,7.911220790503575
9900.0,7.911236807963317
10000.0,7.911252515929545
10100.0,7.911267930066069
10200.0,7.911283135237272
10300.0,7.911298264234736
10400.0,7.911313148621728
10500.0,7.911327774240006
10600.0,7.911342083804723
10700.0,7.911356177513501
10800.0,7.911370054275633
10900.0,7.911383767246524
11000.0,7.911397395466644
11100.0,7.911410755559248
11200.0,7.911423847052232
11300.0,7.91143673878958
11400.0,7.911449430603116
11500.0,7.911461924228325
11600.0,7.91147422225429
11700.0,7.9114864364353386
11800.0,7.911498426705637
11900.0,7.91151023035871
12000.0,7.9115218487015575
12100.0,7.911533284207223
12200.0,7.911544540348572
12300.0,7.911555619964711
12400.0,7.911566519319005
12500.0,7.911577145278657
12600.0,7.911587795278447
12700.0,7.911598279998357
12800.0,7.911608598047381
12900.0,7.911618753127874
13000.0,7.911628747377808
13100.0,7.9116385841061385
13200.0,7.911648240583241
13300.0,7.911657665432509
13400.0,7.911666952160835
13500.0,7.9116760976773275
13600.0,7.911685278880668
13700.0,7.911694315229342
13800.0,7.91170320429092
13900.0,7.911711952410973
14000.0,7.911720563062382
14100.0,7.91172900165132
14200.0,7.911737239289798
14300.0,7.911745356003626
14400.0,7.9117533492378245
14500.0,7.911761218818602
14600.0,7.911768965806868
14700.0,7.911776623313215
14800.0,7.9117843162228345
14900.0,7.9117918775412015
15000.0,7.911799313928395
15100.0,7.911806631816553
15200.0,7.911813727556363
15300.0,7.9118207209448315
15400.0,7.911827608945753
15500.0,7.911834390851009
15600.0,7.911841067269783
15700.0,7.911847639460544
15800.0,7.911854108886305
15900.0,7.911860477073372
16000.0,7.91186674545792
16100.0,7.911872915699909
16200.0,7.911879139492669
16300.0,7.911885294345379
16400.0,7.911891264783109
16500.0,7.9118971199842765
16600.0,7.911902887506164
16700.0,7.911908566415884
16800.0,7.911914156989532
16900.0,7.911919660227356
17000.0,7.911925077366692
17100.0,7.911930409702528
17200.0,7.9119356585301635
17300.0,7.911940825139658
17400.0,7.911945910725614
17500.0,7.911950916566632
17600.0,7.911955843968538
17700.0,7.911960694190899
17800.0,7.911965468432863
17900.0,7.911970093180051
18000.0,7.911974690004372
18100.0,7.911979334865728
18200.0,7.911983899357218
18300.0,7.911988388129438
18400.0,7.911992806629066
18500.0,7.911997155316114
18600.0,7.912001435145223
18700.0,7.9120056475168505
18800.0,7.912009793769647
18900.0,7.912013875005278
19000.0,7.912017892378085
19100.0,7.912021846793464
19200.0,7.9120257392301205
19300.0,7.912029570667897
19400.0,7.912033342068864
19500.0,7.912037054371945
19600.0,7.9120407084388775
19700.0,7.912044305192003
19800.0,7.912047829194171
19900.0,7.912051205850257
20000.0,7.912054538036155
20100.0,7.912057824123491
20200.0,7.912061061401063
20300.0,7.912064249110823
20400.0,7.912067387374794
20500.0,7.912070476714307
20600.0,7.912073625461551
20700.0,7.912076799370699
20800.0,7.912079915561655
20900.0,7.912082978017762
21000.0,7.912085989882615
21100.0,7.912088954867916
21200.0,7.912091872948477
21300.0,7.912094744800942
21400.0,7.912097571418245
21500.0,7.912100353741662
21600.0,7.912103092359259
21700.0,7.912105788046094
21800.0,7.912108441551468
21900.0,7.912111053466951
22000.0,7.912113624441791
22100.0,7.912116155122585
22200.0,7.912118646128883
22300.0,7.912121098110544
22400.0,7.912123511605508
22500.0,7.91212588725283
22600.0,7.912128194491254
22700.0,7.91213038622554
22800.0,7.9121325534667095
22900.0,7.91213469073295
23000.0,7.912136797846258
23100.0,7.912138874250587
23200.0,7.912140919125995
23300.0,7.912142932384526
23400.0,7.912144914258786
23500.0,7.912146865159295
23600.0,7.912148785542376
23700.0,7.912150675872631
23800.0,7.91215253658418
23900.0,7.912154368180554
24000.0,7.912156171052831
24100.0,7.912157945684897
24200.0,7.912159692526815
24300.0,7.912161412021796
24400.0,7.912163104596013
24500.0,7.912164770668902
24600.0,7.912166410654911
24700.0,7.912168024962689
24800.0,7.912169613994501
24900.0,7.912171249681602
25000.0,7.912172971974181
25100.0,7.91217465929284
25200.0,7.912176315388634
25300.0,7.912177942459776
25400.0,7.912179542688161
25500.0,7.912181117446882
25600.0,7.912182667519184
25700.0,7.912184193098739
25800.0,7.9121856945539735
25900.0,7.9121871724634625
26000.0,7.912188627211946
26100.0,7.912190059139685
26200.0,7.912191468613215
26300.0,7.912192855989427
26400.0,7.912194221595786
26500.0,7.912195565808018
26600.0,7.91219688891736
26700.0,7.912198191281093
26800.0,7.9121994732305465
26900.0,7.91220073509164
27000.0,7.912201977177754
27100.0,7.912203199797405
27200.0,7.912204403255416
27300.0,7.912205587852275
27400.0,7.912206753883748
27500.0,7.912207892055564
27600.0,7.912208916027206
27700.0,7.912209928727572
27800.0,7.9122109283971085
27900.0,7.912211916957013
28000.0,7.912212890914818
28100.0,7.912213850575621
28200.0,7.9122147969140295
28300.0,7.912215728862904
28400.0,7.91221664634318
28500.0,7.91221754951411
28600.0,7.9122184385692975
28700.0,7.912219313715593
28800.0,7.912220175163937
28900.0,7.912221023125419
29000.0,7.912221857809487
29100.0,7.912222679416727
29200.0,7.912223488148743
29300.0,7.912224284201495
29400.0,7.912225067783797
29500.0,7.912225839095344
29600.0,7.912226598329903
29700.0,7.912227345675567
29800.0,7.9122280813178625
29900.0,7.912228805439995
30000.0,7.912229518222483
30100.0,7.912230219842974
30200.0,7.9122309104762785
30300.0,7.912231590294432
30400.0,7.912232259466787
30500.0,7.912232918160053
30600.0,7.912233566538334
30700.0,7.912234204763215
30800.0,7.912234832993685
30900.0,7.912235451386333
31000.0,7.9122360600951165
31100.0,7.912236659271645
31200.0,7.912237249065121
31300.0,7.912237829622495
31400.0,7.912238401088373
31500.0,7.912238963605194
31600.0,7.9122395173131705
31700.0,7.912240062350251
31800.0,7.912240598852277
31900.0,7.912241126952814
32000.0,7.912241646783399
32100.0,7.912242158473475
32200.0,7.912242662150537
32300.0,7.912243157940038
32400.0,7.912243645965554
32500.0,7.912244126348732
32600.0,7.912244599209255
32700.0,7.9122450646649725
32800.0,7.912245522831763
32900.0,7.912245973823745
33000.0,7.912246417753224
33100.0,7.912246854730807
33200.0,7.912247284865335
33300.0,7.912247708264021
33400.0,7.912248125032367
33500.0,7.912248535274206
33600.0,7.91224893909174
33700.0,7.91224933658557
33800.0,7.912249727854715
33900.0,7.912250112996661
34000.0,7.91225049210736
34100.0,7.912250865281254
34200.0,7.912251232611314
34300.0,7.912251594189053
34400.0,7.912251950104554
34500.0,7.91225230044648
34600.0,7.912252645302117
34700.0,7.912252984757379
34800.0,7.912253318896831
34900.0,7.912253647803721
35000.0,7.912253971560016
35100.0,7.912254290246373
35200.0,7.91225460394222
35300.0,7.912254912725658
35400.0,7.912255216673602
35500.0,7.912255515861734
35600.0,7.912255810364598
35700.0,7.912256100255551
35800.0,7.912256385606848
35900.0,7.912256666489596
36000.0,7.912256942973775
36100.0,7.912257215128258
36200.0,7.9122574830208485
36300.0,7.912257746718287
36400.0,7.912258006286267
36500.0,7.912258261789457
36600.0,7.912258513291512
36700.0,7.91225876085511
36800.0,7.9122590045419186
36900.0,7.912259244412684
37000.0,7.912259480527125
37100.0,7.912259712944048
37200.0,7.912259941721332
37300.0,7.912260166915975
37400.0,7.912260388584071
37500.0,7.912260606780873
37600.0,7.912260821560747
37700.0,7.912261032977206
37800.0,7.912261241082921
37900.0,7.912261445929734
38000.0,7.912261647568678
38100.0,7.912261846049988
38200.0,7.912262041423113
38300.0,7.912262233736727
38400.0,7.91226242303874
38500.0,7.912262609376313
38600.0,7.912262792795873
38700.0,7.912262973343109
38800.0,7.912263151063002
38900.0,7.912263325999832
39000.0,7.9122634981971816
39100.0,7.912263667697944
39200.0,7.91226383454435
39300.0,7.91226399877797
39400.0,7.912264160439715
39500.0,7.912264319569864
39600.0,7.912264476208058
39700.0,7.912264630393322
39800.0,7.912264782164073
39900.0,7.912264931558111
40000.0,7.912265078612665
40100.0,7.912265223364369
40200.0,7.912265365849282
40300.0,7.912265506102902
40400.0,7.91226564416017
40500.0,7.9122657800554865
40600.0,7.9122659138227025
40700.0,7.9122660454951435
40800.0,7.912266175105626
40900.0,7.9122663026864375
41000.0,7.912266428269378
41100.0,7.912266551885715
41200.0,7.912266673566233
41300.0,7.912266793341239
41400.0,7.912266911240575
41500.0,7.912267027293605
41600.0,7.912267141529257
41700.0,7.912267253975996
41800.0,7.912267364661836
41900.0,7.912267473614354
42000.0,7.912267580860691
42100.0,7.912267686427567
42200.0,7.912267790341282
42300.0,7.912267892627724
42400.0,7.912267993312373
42500.0,7.912268092420315
42600.0,7.912268189976241
42700.0,7.912268286004458
42800.0,7.912268380528888
42900.0,7.912268473573076
43000.0,7.912268565160204
43100.0,7.912268655313095
43200.0,7.912268744054206
43300.0,7.912268831405639
43400.0,7.912268917389162
43500.0,7.912269002026201
43600.0,7.91226908533783
43700.0,7.912269167344813
43800.0,7.91226924806758
43900.0,7.912269327526238
44000.0,7.912269424468206
44100.0,7.91226968518913
44200.0,7.912269934008719
44300.0,7.91227017421306
44400.0,7.912270408805777
44500.0,7.9122706380539
44600.0,7.912270862809499
44700.0,7.912271083401899
44800.0,7.912271300048762
44900.0,7.912271512861824
45000.0,7.9122717221569125
45100.0,7.912271928245138
45200.0,7.912272131361643
45300.0,7.912272331368098
45400.0,7.912272528247902
45500.0,7.91227272167177
45600.0,7.912272911917653
45700.0,7.912273099214588
45800.0,7.912273283641758
45900.0,7.912273465421361
46000.0,7.9122736444668
46100.0,7.912273820746215
46200.0,7.912273994267593
46300.0,7.912274165067431
46400.0,7.912274333188664
46500.0,7.912274498674066
46600.0,7.912274661564793
46700.0,7.912274821902568
46800.0,7.912274979723078
46900.0,7.912275135067774
47000.0,7.912275287977122
47100.0,7.912275438489467
47200.0,7.912275586646915
47300.0,7.9122757324828035
47400.0,7.912275876033611
47500.0,7.912276017330764
47600.0,7.912276156411255
47700.0,7.912276293311376
47800.0,7.912276428065467
47900.0,7.912276560711226
48000.0,7.9122766912784845
48100.0,7.912276819799907
48200.0,7.912276946303625
48300.0,7.9122770708227605
48400.0,7.912277193389799
48500.0,7.9122773140355
48600.0,7.9122774327936005
48700.0,7.912277549690817
48800.0,7.912277664756386
48900.0,7.9122777780155005
49000.0,7.9122778894978145
49100.0,7.912277999232412
49200.0,7.9122781072468245
49300.0,7.912278213571269
49400.0,7.91227831822965
49500.0,7.912278421248161
49600.0,7.9122785226493475
49700.0,7.9122786224597546
49800.0,7.9122787207054275
49900.0,7.9122788174110195
50000.0,7.912278912603572
50100.0,7.9122790063045
50200.0,7.912279098537245
50300.0,7.91227918932199
50400.0,7.9122792786825125
50500.0,7.9122793666421245
50600.0,7.912279453222893
50700.0,7.912279538449037
50800.0,7.9122796223397245
50900.0,7.912279704915943
51000.0,7.912279786195763
51100.0,7.912279866200473
51200.0,7.912279944950945
51300.0,7.912280022466931
51400.0,7.912280098770123
51500.0,7.91228017387791
51600.0,7.91228024780866
51700.0,7.912280320580568
51800.0,7.912280392211515
51900.0,7.912280462719797
52000.0,7.9122805321211045
52100.0,7.912280600433676
52200.0,7.912280667675307
52300.0,7.912280733862861
52400.0,7.912280799014851
52500.0,7.912280863146138
52600.0,7.912280926272408
52700.0,7.9122809884091865
52800.0,7.912281049571751
52900.0,7.91228110977572
53000.0,7.912281169034496
53100.0,7.91228122736364
53200.0,7.9122812847783575
53300.0,7.912281341293041
53400.0,7.912281396923507
53500.0,7.912281451682436
53600.0,7.9122815055832225
53700.0,7.912281558639131
53800.0,7.912281610863196
53900.0,7.9122816622687555
54000.0,7.912281712867257
54100.0,7.912281762671987
54200.0,7.912281811695928
54300.0,7.912281859951369
54400.0,7.912281907451813
54500.0,7.912281954208091
54600.0,7.912282000231639
54700.0,7.912282045533779
54800.0,7.912282090125645
54900.0,7.912282134018629
55000.0,7.912282177222494
55100.0,7.9122822197485965
55200.0,7.9122822616080155
55300.0,7.912282302811245
55400.0,7.912282343369817
55500.0,7.912282383292977
55600.0,7.912282422590491
55700.0,7.912282461272025
55800.0,7.9122824993470875
55900.0,7.912282536825403
56000.0,7.912282573715314
56100.0,7.91228261002651
56200.0,7.912282645768454
56300.0,7.912282680950109
56400.0,7.912282715581315
56500.0,7.912282749669973
56600.0,7.912282783224417
56700.0,7.912282816252903
56800.0,7.912282848763547
56900.0,7.912282880764657
57000.0,7.912282912263352
57100.0,7.912282943267909
57200.0,7.912282973786404
57300.0,7.912283003826497
57400.0,7.912283033396582
57500.0,7.912283062503409
57600.0,7.9122830911540944
57700.0,7.912283119355686
57800.0,7.912283147115119
57900.0,7.912283174439478
58000.0,7.912283201334851
58100.0,7.912283227808297
58200.0,7.912283253866718
58300.0,7.91228327951665
58400.0,7.912283304765265
58500.0,7.91228332961832
58600.0,7.9122833540818975
58700.0,7.912283378162016
58800.0,7.912283401864594
58900.0,7.912283425195679
59000.0,7.912283448160469
59100.0,7.912283470765001
59200.0,7.912283493015154
59300.0,7.912283514916519
59400.0,7.9122835364752175
59500.0,7.912283557696166
59600.0,7.912283578584554
59700.0,7.912283599145522
59800.0,7.912283619384126
59900.0,7.912283639305527
60000.0,7.912283658914166
60100.0,7.912283678215199
60200.0,7.9122836972136374
60300.0,7.912283715914264
60400.0,7.912283734322304
60500.0,7.91228375244195
60600.0,7.91228377027764
60700.0,7.912283787833759
60800.0,7.912283805114623
60900.0,7.912283822124647
61000.0,7.912283838867615
61100.0,7.912283855347927
61200.0,7.912283871569874
61300.0,7.9122838875375265
61400.0,7.912283903255352
61500.0,7.9122839187269305
61600.0,7.912283933956054
61700.0,7.912283948946463
61800.0,7.912283963701844
61900.0,7.912283978225966
62000.0,7.91228399252206
62100.0,7.9122840065938815
62200.0,7.9122840204450995
62300.0,7.9122840340791845
62400.0,7.912284047499955
62500.0,7.912284060710467
62600.0,7.912284073713953
62700.0,7.912284086513614
62800.0,7.912284099105589
62900.0,7.912284111503033
63000.0,7.912284123655834
63100.0,7.912284135615476
63200.0,7.912284147386911
63300.0,7.91228415897446
63400.0,7.912284170381221
63500.0,7.912284181610052
63600.0,7.91228419266373
63700.0,7.912284203544993
63800.0,7.912284214256528
63900.0,7.912284224800981
64000.0,7.9122842351809615
64100.0,7.912284245399036
64200.0,7.912284255457724
64300.0,7.912284265359517
64400.0,7.912284275106859
64500.0,7.9122842847021575
64600.0,7.912284294147789
64700.0,7.912284303446088
64800.0,7.91228431259935
64900.0,7.912284321609836
65000.0,7.9122843304797765
65100.0,7.912284339211362
65200.0,7.912284347806752
65300.0,7.91228435626807
65400.0,7.912284364597404
65500.0,7.912284372796818
65600.0,7.912284380868337
65700.0,7.912284388813951
65800.0,7.912284396635631
65900.0,7.912284404335308
66000.0,7.912284411914885
66100.0,7.912284419376236
66200.0,7.912284426721199
66300.0,7.912284433951596
66400.0,7.912284441069214
66500.0,7.912284448075805
66600.0,7.91228445497311
66700.0,7.9122844617628285
66800.0,7.912284468446643
66900.0,7.912284475026199
67000.0,7.912284481503126
67100.0,7.9122844878790275
67200.0,7.912284494155473
67300.0,7.912284500334022
67400.0,7.912284506416193
67500.0,7.912284512403495
67600.0,7.9122845182974055
67700.0,7.912284524099382
67800.0,7.912284529810858
67900.0,7.912284535433248
68000.0,7.912284540967937
68100.0,7.912284546416293
68200.0,7.912284551779667
68300.0,7.912284557059381
68400.0,7.912284562256741
68500.0,7.9122845673730335
68600.0,7.912284572409522
68700.0,7.9122845773674495
68800.0,7.9122845822480405
68900.0,7.912284587052507
69000.0,7.912284591782028
69100.0,7.912284596437781
69200.0,7.912284601020911
69300.0,7.9122846055325535
69400.0,7.912284609973822
69500.0,7.912284614345815
69600.0,7.912284618649614
69700.0,7.912284622886282
69800.0,7.912284627056864
69900.0,7.912284631162392
70000.0,7.912284635203884
70100.0,7.912284639182333
70200.0,7.9122846430987295
70300.0,7.912284646954034
70400.0,7.912284650749205
70500.0,7.912284654485177
70600.0,7.912284658162876
70700.0,7.9122846617832066
70800.0,7.912284665347069
70900.0,7.912284668855341
71000.0,7.912284672308892
71100.0,7.912284675708574
71200.0,7.912284679055229
71300.0,7.912284682349677
71400.0,7.9122846855927405
71500.0,7.912284688785216
71600.0,7.912284691927898
71700.0,7.912284695021558
71800.0,7.912284698066962
71900.0,7.912284701064864
72000.0,7.912284704016005
72100.0,7.912284706921113
72200.0,7.912284709780905
72300.0,7.912284712596095
72400.0,7.912284715367368
72500.0,7.912284718095417
72600.0,7.912284720780911
72700.0,7.912284723424518
72800.0,7.91228472602689
72900.0,7.912284728588671
73000.0,7.912284731110489
73100.0,7.912284733592974
73200.0,7.912284736036737
73300.0,7.912284738442382
73400.0,7.912284740810502
73500.0,7.912284743141684
73600.0,7.912284745436503
73700.0,7.9122847476955265
73800.0,7.9122847499193165
73900.0,7.912284752108418
74000.0,7.912284754263373
74100.0,7.9122847563847145
74200.0,7.9122847584729685
74300.0,7.912284760528648
74400.0,7.912284762552265
74500.0,7.912284764544315
74600.0,7.912284766505293
74700.0,7.912284768435681
74800.0,7.912284770335961
74900.0,7.9122847722066
75000.0,7.912284774048061
75100.0,7.912284775860798
75200.0,7.912284777645261
75300.0,7.91228477940189
75400.0,7.9122847811311185
75500.0,7.912284782833372
75600.0,7.912284784509074
75700.0,7.912284786158638
75800.0,7.9122847877824745
75900.0,7.912284789380981
76000.0,7.912284790954553
76100.0,7.912284792503578
76200.0,7.9122847940284435
76300.0,7.912284795529525
76400.0,7.91228479700719
76500.0,7.9122847984618065
76600.0,7.912284799893732
76700.0,7.9122848013033265
76800.0,7.912284802690933
76900.0,7.912284804056892
