M.D_b.TA Time [a],M.D_b.TA TA [mol/kg]
0.0,0.002399
100.0,0.002399287452015509
200.0,0.0023994054102998673
300.0,0.0023995222982904213
400.0,0.002399643994074502
500.0,0.0023997646218832944
600.0,0.0023998790276083906
700.0,0.002399988342922325
800.0,0.0024000911560592125
900.0,0.002400187673383072
1000.0,0.002400277701682715
1100.0,0.0024003631877330994
1200.0,0.0024004416406626507
1300.0,0.0024005156362654585
1400.0,0.002400586058188984
1500.0,0.0024006523037201
1600.0,0.002400713793799129
1700.0,0.0024007706946640446
1800.0,0.002400824483087637
1900.0,0.0024008752193197705
2000.0,0.002400924184471162
2100.0,0.0024009693613137985
2200.0,0.0024010137046257376
2300.0,0.002401057431458367
2400.0,0.0024011004723598094
2500.0,0.002401142921339029
2600.0,0.0024011846608664815
2700.0,0.0024012258520441096
2800.0,0.0024012663218789198
2900.0,0.0024013062728035343
3000.0,0.002401345547180711
3100.0,0.0024013842821294607
3200.0,0.00240142240020347
3300.0,0.002401459955204586
3400.0,0.00240149695138477
3500.0,0.0024015333432285944
3600.0,0.002401569252032229
3700.0,0.0024016045230908292
3800.0,0.0024016393724751338
3900.0,0.002401673606830176
4000.0,0.0024017073727393263
4100.0,0.0024017406042180496
4200.0,0.0024017733173721106
4300.0,0.0024018055804942073
4400.0,0.0024018373385777604
4500.0,0.002401868575922649
4600.0,0.002401899407958092
4700.0,0.0024019297186742457
4800.0,0.0024019595819990036
4900.0,0.0024019890387790236
5000.0,0.0024020179685503885
5100.0,0.0024020465270628787
5200.0,0.0024020746351192967
5300.0,0.0024021022905489115
5400.0,0.002402129562937563
5500.0,0.0024021564198975285
5600.0,0.0024021828576540594
5700.0,0.002402208869834296
5800.0,0.0024022345466466807
5900.0,0.002402259822470621
6000.0,0.0024022846198465068
6100.0,0.0024023091715772308
6200.0,0.0024023333232573896
6300.0,0.002402357033273558
6400.0,0.002402380441072779
6500.0,0.0024024035307605917
6600.0,0.0024024262055187826
6700.0,0.0024024485289379
6800.0,0.0024024705857789673
6900.0,0.002402492271815381
7000.0,0.0024025136222617515
7100.0,0.002402534638579149
7200.0,0.0024025553553306575
7300.0,0.002402575780216487
7400.0,0.0024025958856986364
7500.0,0.002402615623304566
7600.0,0.002402635104354848
7700.0,0.0024026543403553834
7800.0,0.0024026732748337427
7900.0,0.0024026918299292683
8000.0,0.002402710111111147
8100.0,0.002402728234109991
8200.0,0.002402746053414432
8300.0,0.0024027635342521686
8400.0,0.002402780746193551
8500.0,0.0024027977210672336
8600.0,0.0024028145131344144
8700.0,0.002402830984663858
8800.0,0.0024028472021311955
8900.0,0.002402863166579462
9000.0,0.002402878882719661
9100.0,0.0024028944125390815
9200.0,0.0024029096989260277
9300.0,0.002402924745714061
9400.0,0.002402939556862859
9500.0,0.002402954101202221
9600.0,0.0024029684241848965
9700.0,0.0024029826176500202
9800.0,0.002402996588381515
9900.0,0.002403010340187968
10000.0,0.0024030238331276777
10100.0,0.0024030370778876215
10200.0,0.002403050138340406
10300.0,0.0024030631155018546
10400.0,0.0024030758897682115
10500.0,0.002403088447762571
10600.0,0.0024031007446853963
10700.0,0.0024031128535940706
10800.0,0.0024031247744704907
10900.0,0.0024031365485827866
11000.0,0.0024031482380196785
11100.0,0.0024031597087185433
11200.0,0.0024031709571654485
11300.0,0.002403182032849906
11400.0,0.0024031929358223018
11500.0,0.0024032036681489698
11600.0,0.0024032142323778555
11700.0,0.002403224713024466
11800.0,0.0024032350091622062
11900.0,0.002403245147050176
12000.0,0.002403255126777433
12100.0,0.0024032649500242338
12200.0,0.0024032746195228093
12300.0,0.0024032841376142077
12400.0,0.0024032935012353847
12500.0,0.0024033026398198242
12600.0,0.0024033117777148526
12700.0,0.0024033207771713976
12800.0,0.0024033296371455716
12900.0,0.0024033383592300932
13000.0,0.0024033469445260947
13100.0,0.0024033553951862624
13200.0,0.002403363693502091
13300.0,0.0024033718002461303
13400.0,0.0024033797846613543
13500.0,0.0024033876449764346
13600.0,0.0024033955174915665
13700.0,0.00240340327113044
13800.0,0.0024034109030769855
13900.0,0.0024034184165795244
14000.0,0.0024034258134300684
14100.0,0.002403433066584543
14200.0,0.0024034401532482524
14300.0,0.0024034471325650214
14400.0,0.002403454003415668
14500.0,0.002403460766762104
14600.0,0.002403467424211192
14700.0,0.002403474001862493
14800.0,0.0024034805946877877
14900.0,0.002403487082395015
15000.0,0.0024034934673603198
15100.0,0.002403499752648886
15200.0,0.0024035058587695383
15300.0,0.002403511873823595
15400.0,0.0024035177958341048
15500.0,0.002403523625209521
15600.0,0.0024035293632744645
15700.0,0.0024035350114862703
15800.0,0.002403540571266075
15900.0,0.002403546043999768
16000.0,0.002403551430962738
16100.0,0.0024035567336032336
16200.0,0.0024035620673659823
16300.0,0.0024035673444813914
16400.0,0.0024035724763691742
16500.0,0.002403577511659423
16600.0,0.00240358247029493
16700.0,0.002403587351821179
16800.0,0.0024035921569639184
16900.0,0.0024035968868445557
17000.0,0.002403601542645719
17100.0,0.002403606125533848
17200.0,0.0024036106366478196
17300.0,0.0024036150771217144
17400.0,0.002403619447964432
17500.0,0.002403623750287042
17600.0,0.00240362798521878
17700.0,0.002403632153837931
17800.0,0.002403636257175877
17900.0,0.00240364023852467
18000.0,0.002403644189708649
18100.0,0.00240364817009858
18200.0,0.0024036520867408958
18300.0,0.0024036559413100358
18400.0,0.0024036597370455325
18500.0,0.0024036634736728135
18600.0,0.0024036671516936095
18700.0,0.002403670772011945
18800.0,0.002403674335642059
18900.0,0.002403677843473282
19000.0,0.002403681296465353
19100.0,0.0024036846953798645
19200.0,0.0024036880410478996
19300.0,0.0024036913343053706
19400.0,0.002403694575975653
19500.0,0.0024036977668637593
19600.0,0.0024037009077096374
19700.0,0.0024037039993026815
19800.0,0.002403707029664171
19900.0,0.0024037099412225053
20000.0,0.0024037128110199727
20100.0,0.0024037156388388137
20200.0,0.0024037184231999946
20300.0,0.0024037211640953954
20400.0,0.0024037238620733398
20500.0,0.002403726517804576
20600.0,0.002403729213733758
20700.0,0.0024037319277891048
20800.0,0.0024037345986868412
20900.0,0.0024037372269925987
21000.0,0.0024037398137258547
21100.0,0.002403742361148509
21200.0,0.0024037448688283823
21300.0,0.0024037473371428847
21400.0,0.0024037497667400163
21500.0,0.0024037521583468507
21600.0,0.002403754512438145
21700.0,0.0024037568296567807
21800.0,0.002403759110630939
21900.0,0.002403761355869701
22000.0,0.0024037635659263827
22100.0,0.0024037657413540033
22200.0,0.00240376788268364
22300.0,0.0024037699904733995
22400.0,0.0024037720651909618
22500.0,0.0024037741073708123
22600.0,0.0024037760935859765
22700.0,0.002403777985651349
22800.0,0.0024037798538458248
22900.0,0.002403781694082356
23000.0,0.002403783507163864
23100.0,0.002403785293100584
23200.0,0.002403787051488725
23300.0,0.0024037887824257973
23400.0,0.0024037904862622204
23500.0,0.0024037921634155533
23600.0,0.0024037938143078763
23700.0,0.0024037954393530208
23800.0,0.0024037970389310832
23900.0,0.002403798613480957
24000.0,0.002403800163341199
24100.0,0.002403801688920317
24200.0,0.0024038031906142778
24300.0,0.00240380466880112
24400.0,0.00240380612384757
24500.0,0.002403807556114406
24600.0,0.0024038089659578358
24700.0,0.0024038103537290423
24800.0,0.002403811719773719
24900.0,0.002403813118988429
25000.0,0.002403814583828743
25100.0,0.0024038160255415116
25200.0,0.002403817444488574
25300.0,0.0024038188407072398
25400.0,0.0024038202150171964
25500.0,0.0024038215680586253
25600.0,0.0024038229002077776
25700.0,0.00240382421150411
25800.0,0.0024038255021881006
25900.0,0.0024038267726755468
26000.0,0.0024038280232795907
26100.0,0.00240382925428308
26200.0,0.002403830465993733
26300.0,0.0024038316587135845
26400.0,0.00240383283272212
26500.0,0.0024038339883420113
26600.0,0.00240383512582353
26700.0,0.0024038362454676444
26800.0,0.002403837347565233
26900.0,0.0024038384323939767
27000.0,0.002403839500223461
27100.0,0.002403840551319013
27200.0,0.0024038415859426046
27300.0,0.0024038426043524836
27400.0,0.002403843606802842
27500.0,0.002403844585843921
27600.0,0.002403845474910252
27700.0,0.002403846351006099
27800.0,0.0024038472137142357
27900.0,0.002403848065660338
28000.0,0.0024038489041166193
28100.0,0.002403849729798861
28200.0,0.0024038505437466466
28300.0,0.0024038513451631453
28400.0,0.002403852134044197
28500.0,0.0024038529105705982
28600.0,0.00240385367493521
28700.0,0.002403854427329624
28800.0,0.002403855167941862
28900.0,0.002403855896956568
29000.0,0.0024038566145553435
29100.0,0.0024038573209113887
29200.0,0.0024038580162001463
29300.0,0.002403858700587322
29400.0,0.0024038593742530556
29500.0,0.002403860037370334
29600.0,0.0024038606901050402
29700.0,0.0024038613326190176
29800.0,0.002403861965071815
29900.0,0.0024038625876209177
30000.0,0.002403863200421492
30100.0,0.0024038638036262415
30200.0,0.002403864397385427
30300.0,0.002403864981846939
30400.0,0.0024038655571563543
30500.0,0.002403866123456977
30600.0,0.0024038666808898703
30700.0,0.0024038672295939372
30800.0,0.002403867769705834
30900.0,0.0024038683013601885
31000.0,0.0024038688246893515
31100.0,0.0024038693398236283
31200.0,0.002403869846891291
31300.0,0.0024038703460186736
31400.0,0.0024038708373300566
31500.0,0.002403871320947889
31600.0,0.0024038717969927154
31700.0,0.002403872265583101
31800.0,0.0024038727268358446
31900.0,0.002403873180865769
32000.0,0.0024038736277859265
32100.0,0.0024038740677076076
32200.0,0.00240387450074042
32300.0,0.002403874926992188
32400.0,0.002403875346569148
32500.0,0.0024038757595758833
32600.0,0.002403876166115261
32700.0,0.0024038765662886146
32800.0,0.0024038769601955642
32900.0,0.0024038773479341936
33000.0,0.0024038777296010575
33100.0,0.00240387810529125
33200.0,0.00240387847509832
33300.0,0.0024038788391144363
33400.0,0.002403879197430303
33500.0,0.0024038795501351807
33600.0,0.002403879897316929
33700.0,0.002403880239062031
33800.0,0.0024038805754556187
33900.0,0.0024038809065814906
34000.0,0.0024038812325221336
34100.0,0.0024038815533587434
34200.0,0.0024038818691712433
34300.0,0.002403882180038306
34400.0,0.0024038824860373705
34500.0,0.0024038827872446666
34600.0,0.0024038830837352274
34700.0,0.0024038833755829127
34800.0,0.002403883662860425
34900.0,0.0024038839456393284
35000.0,0.002403884223990093
35100.0,0.0024038844979820473
35200.0,0.0024038847676834912
35300.0,0.00240388503316157
35400.0,0.002403885294482391
35500.0,0.0024038855517110286
35600.0,0.002403885804911576
35700.0,0.0024038860541470827
35800.0,0.0024038862994796694
35900.0,0.0024038865409704694
36000.0,0.0024038867786796434
36100.0,0.002403887012666406
36200.0,0.002403887242989046
36300.0,0.0024038874697049403
36400.0,0.0024038876928705677
36500.0,0.0024038879125415236
36600.0,0.002403888128772531
36700.0,0.002403888341617476
36800.0,0.0024038885511293738
36900.0,0.0024038887573604516
37000.0,0.0024038889603620536
37100.0,0.0024038891601847307
37200.0,0.002403889356878244
37300.0,0.002403889550491604
37400.0,0.002403889741073023
37500.0,0.002403889928670004
37600.0,0.0024038901133292927
37700.0,0.002403890295096894
37800.0,0.002403890474018087
37900.0,0.0024038906501374444
38000.0,0.0024038908234988404
38100.0,0.0024038909941454635
38200.0,0.002403891162119825
38300.0,0.002403891327463771
38400.0,0.002403891490218492
38500.0,0.0024038916504245346
38600.0,0.0024038918081218086
38700.0,0.0024038919633496006
38800.0,0.0024038921161465806
38900.0,0.002403892266550814
39000.0,0.00240389241459977
39100.0,0.0024038925603303302
39200.0,0.0024038927037788003
39300.0,0.002403892844980916
39400.0,0.0024038929839718536
39500.0,0.0024038931207862398
39600.0,0.0024038932554581584
39700.0,0.002403893388021159
39800.0,0.0024038935185082652
39900.0,0.0024038936469519857
40000.0,0.0024038937733843187
40100.0,0.002403893897836761
40200.0,0.002403894020340317
40300.0,0.002403894140925505
40400.0,0.0024038942596223663
40500.0,0.0024038943764604706
40600.0,0.002403894491468926
40700.0,0.002403894604676383
40800.0,0.002403894716111055
40900.0,0.0024038948258006984
41000.0,0.002403894933772657
41100.0,0.0024038950400538136
41200.0,0.0024038951446706345
41300.0,0.002403895247649172
41400.0,0.0024038953490150873
41500.0,0.002403895448793622
41600.0,0.002403895547009647
41700.0,0.0024038956436876363
41800.0,0.002403895738851676
41900.0,0.0024038958325254735
42000.0,0.002403895924732364
42100.0,0.002403896015495319
42200.0,0.0024038961048369503
42300.0,0.0024038961927795146
42400.0,0.002403896279344921
42500.0,0.002403896364554736
42600.0,0.002403896448430187
42700.0,0.00240389653099217
42800.0,0.002403896612261253
42900.0,0.0024038966922576817
43000.0,0.0024038967710013873
43100.0,0.0024038968485119855
43200.0,0.0024038969248087864
43300.0,0.002403896999910798
43400.0,0.0024038970738367305
43500.0,0.002403897146605
43600.0,0.0024038972182337365
43700.0,0.0024038972887407838
43800.0,0.002403897358143707
43900.0,0.0024038974264597966
44000.0,0.0024038975086728472
44100.0,0.0024038977166518606
44200.0,0.002403897920537983
44300.0,0.0024038981210350394
44400.0,0.0024038983189468284
44500.0,0.0024038985139059727
44600.0,0.002403898705953893
44700.0,0.0024038988949732043
44800.0,0.002403899080902244
44900.0,0.002403899263693201
45000.0,0.0024038994435401574
45100.0,0.00240389962067134
45200.0,0.0024038997952725264
45300.0,0.0024038999672156493
45400.0,0.0024039001364781964
45500.0,0.002403900302774984
45600.0,0.0024039004663423016
45700.0,0.0024039006273787263
45800.0,0.002403900785943698
45900.0,0.0024039009422258902
46000.0,0.002403901096168568
46100.0,0.002403901247729012
46200.0,0.0024039013969180986
46300.0,0.002403901543767717
46400.0,0.0024039016883145537
46500.0,0.0024039018305952457
46600.0,0.0024039019706451345
46700.0,0.002403902108500086
46800.0,0.0024039022441911706
46900.0,0.002403902377753135
47000.0,0.0024039025092213607
47100.0,0.0024039026386286967
47200.0,0.002403902766010976
47300.0,0.0024039028913977038
47400.0,0.0024039030148197233
47500.0,0.00240390313630446
47600.0,0.002403903255882961
47700.0,0.002403903373586928
47800.0,0.002403903489445783
47900.0,0.0024039036034916024
48000.0,0.0024039037157507974
48100.0,0.0024039038262509793
48200.0,0.002403903935016703
48300.0,0.002403904042075765
48400.0,0.0024039041474565475
48500.0,0.0024039042511853938
48600.0,0.0024039043532910207
48700.0,0.0024039044537970742
48800.0,0.0024039045527282756
48900.0,0.0024039046501066093
49000.0,0.0024039047459569604
49100.0,0.0024039048403047413
49200.0,0.002403904933173536
49300.0,0.0024039050245890548
49400.0,0.002403905114572469
49500.0,0.002403905203145911
49600.0,0.002403905290329064
49700.0,0.0024039053761442087
49800.0,0.002403905460614095
49900.0,0.002403905543759839
50000.0,0.0024039056256044593
50100.0,0.00240390570616691
50200.0,0.002403905785467008
50300.0,0.0024039058635223734
50400.0,0.0024039059403529557
50500.0,0.0024039060159791225
50600.0,0.0024039060904197792
50700.0,0.002403906163695535
50800.0,0.0024039062358233595
50900.0,0.002403906306820994
51000.0,0.002403906376704215
51100.0,0.0024039064454908824
51200.0,0.0024039065131992326
51300.0,0.002403906579846191
51400.0,0.002403906645450209
51500.0,0.002403906710026678
51600.0,0.002403906773591125
51700.0,0.0024039068361592186
51800.0,0.00240390689774634
51900.0,0.002403906958368224
52000.0,0.0024039070180385314
52100.0,0.0024039070767725474
52200.0,0.0024039071345858336
52300.0,0.002403907191492836
52400.0,0.002403907247509313
52500.0,0.0024039073026484075
52600.0,0.0024039073569233787
52700.0,0.002403907410347605
52800.0,0.0024039074629342207
52900.0,0.002403907514696661
53000.0,0.0024039075656465897
53100.0,0.002403907615797058
53200.0,0.0024039076651613546
53300.0,0.002403907713751814
53400.0,0.00240390776158189
53500.0,0.0024039078086628067
53600.0,0.0024039078550058845
53700.0,0.0024039079006225473
53800.0,0.0024039079455240096
53900.0,0.002403907989721743
54000.0,0.002403908033225707
54100.0,0.0024039080760470464
54200.0,0.0024039081181971064
54300.0,0.002403908159686419
54400.0,0.002403908200526473
54500.0,0.002403908240726852
54600.0,0.0024039082802972205
54700.0,0.002403908319247335
54800.0,0.002403908357586769
54900.0,0.002403908395325319
55000.0,0.0024039084324714893
55100.0,0.0024039084690347947
55200.0,0.002403908505024923
55300.0,0.002403908540450868
55400.0,0.002403908575322438
55500.0,0.002403908609647816
55600.0,0.0024039086434352558
55700.0,0.0024039086766930863
55800.0,0.0024039087094294836
55900.0,0.0024039087416528114
56000.0,0.0024039087733703306
56100.0,0.0024039088045901664
56200.0,0.002403908835320591
56300.0,0.0024039088655692835
56400.0,0.0024039088953446185
56500.0,0.0024039089246535835
56600.0,0.002403908953503226
56700.0,0.0024039089819006577
56800.0,0.00240390900985286
56900.0,0.002403909037366974
57000.0,0.0024039090644491995
57100.0,0.0024039090911064744
57200.0,0.002403909117345862
57300.0,0.002403909143173919
57400.0,0.0024039091685977964
57500.0,0.0024039091936234602
57600.0,0.0024039092182569287
57700.0,0.002403909242504273
57800.0,0.002403909266371455
57900.0,0.002403909289864572
58000.0,0.0024039093129889183
58100.0,0.0024039093357504176
58200.0,0.0024039093581551
58300.0,0.002403909380208565
58400.0,0.0024039094019169187
58500.0,0.0024039094232852546
58600.0,0.0024039094443187117
58700.0,0.0024039094650224746
58800.0,0.0024039094854016326
58900.0,0.0024039095054613924
59000.0,0.002403909525206275
59100.0,0.0024039095446413378
59200.0,0.0024039095637717308
59300.0,0.0024039095826022335
59400.0,0.0024039096011380604
59500.0,0.002403909619383561
59600.0,0.002403909637343123
59700.0,0.0024039096550211724
59800.0,0.0024039096724220565
59900.0,0.0024039096895502204
60000.0,0.0024039097064095234
60100.0,0.002403909723004285
60200.0,0.002403909739338902
60300.0,0.0024039097554174557
60400.0,0.0024039097712443983
60500.0,0.0024039097868234437
60600.0,0.002403909802158338
60700.0,0.002403909817252862
60800.0,0.002403909832110725
60900.0,0.0024039098467357246
61000.0,0.0024039098611311556
61100.0,0.0024039098753007057
61200.0,0.0024039098892481296
61300.0,0.002403909902976912
61400.0,0.0024039099164908546
61500.0,0.0024039099297931284
61600.0,0.0024039099428869322
61700.0,0.002403909955775494
61800.0,0.0024039099684619817
61900.0,0.0024039099809496367
62000.0,0.002403909993241273
62100.0,0.0024039100053400396
62200.0,0.0024039100172491418
62300.0,0.002403910028971556
62400.0,0.0024039100405105276
62500.0,0.0024039100518687645
62600.0,0.0024039100630489974
62700.0,0.002403910074053983
62800.0,0.0024039100848804043
62900.0,0.0024039100955398156
63000.0,0.002403910105991535
63100.0,0.002403910116273736
63200.0,0.002403910126394537
63300.0,0.0024039101363573126
63400.0,0.0024039101461646624
63500.0,0.0024039101558190317
63600.0,0.0024039101653228106
63700.0,0.0024039101746783477
63800.0,0.0024039101838879556
63900.0,0.002403910192953911
64000.0,0.0024039102018784545
64100.0,0.0024039102106637915
64200.0,0.0024039102193120936
64300.0,0.0024039102278254976
64400.0,0.0024039102362061085
64500.0,0.002403910244455998
64600.0,0.002403910252577204
64700.0,0.0024039102605717343
64800.0,0.002403910268441565
64900.0,0.0024039102761886405
65000.0,0.002403910283814876
65100.0,0.002403910291322157
65200.0,0.0024039102987123374
65300.0,0.002403910305987245
65400.0,0.0024039103131486775
65500.0,0.002403910320198405
65600.0,0.00240391032713817
65700.0,0.002403910333969687
65800.0,0.0024039103406946452
65900.0,0.002403910347314707
66000.0,0.0024039103538315075
66100.0,0.0024039103602466584
66200.0,0.0024039103665617445
66300.0,0.002403910372778327
66400.0,0.002403910378897942
66500.0,0.0024039103849221024
66600.0,0.0024039103908522976
66700.0,0.0024039103966899925
66800.0,0.00240391040243663
66900.0,0.0024039104080936305
67000.0,0.0024039104136623925
67100.0,0.0024039104191442917
67200.0,0.002403910424540684
67300.0,0.002403910429852902
67400.0,0.0024039104350822593
67500.0,0.0024039104402300486
67600.0,0.0024039104452975414
67700.0,0.002403910450285991
67800.0,0.00240391045519663
67900.0,0.002403910460030672
