M.D_b.CO3 Time [a],M.D_b.CO3 CO3 [mol/kg]
0.0,8.68408559524507e-05
100.0,8.660139347345111e-05
200.0,8.647439345507765e-05
300.0,8.641993457789678e-05
400.0,8.640535003967213e-05
500.0,8.64095915289439e-05
600.0,8.642363728846192e-05
700.0,8.644218222384995e-05
800.0,8.64623751256192e-05
900.0,8.648291235492952e-05
1000.0,8.650271536620182e-05
1100.0,8.652181889060911e-05
1200.0,8.654036233161161e-05
1300.0,8.655833433085886e-05
1400.0,8.657495792779301e-05
1500.0,8.6590584054955e-05
1600.0,8.660544154365353e-05
1700.0,8.66198001885279e-05
1800.0,8.663253034939327e-05
1900.0,8.664416295258275e-05
2000.0,8.665528510257996e-05
2100.0,8.666587528845892e-05
2200.0,8.667636628711664e-05
2300.0,8.668674141763753e-05
2400.0,8.669698929635714e-05
2500.0,8.670709466425729e-05
2600.0,8.671706378695821e-05
2700.0,8.672731063809662e-05
2800.0,8.673783639395546e-05
2900.0,8.674860689337275e-05
3000.0,8.675962257903757e-05
3100.0,8.677086547841737e-05
3200.0,8.678235083185513e-05
3300.0,8.679404290009221e-05
3400.0,8.680596829436385e-05
3500.0,8.681770601660441e-05
3600.0,8.682965908649849e-05
3700.0,8.684143240199323e-05
3800.0,8.685299880677556e-05
3900.0,8.686481620717261e-05
4000.0,8.687685963788781e-05
4100.0,8.688914148266541e-05
4200.0,8.690079062239385e-05
4300.0,8.691140353751956e-05
4400.0,8.692145050328484e-05
4500.0,8.693096869995353e-05
4600.0,8.693994790027935e-05
4700.0,8.694841897670294e-05
4800.0,8.695636969628334e-05
4900.0,8.696423596761051e-05
5000.0,8.697160035525465e-05
5100.0,8.697845378962624e-05
5200.0,8.698522513341593e-05
5300.0,8.699150774405217e-05
5400.0,8.699730445685343e-05
5500.0,8.700303388750412e-05
5600.0,8.700868623137102e-05
5700.0,8.701428383205805e-05
5800.0,8.70198133713559e-05
5900.0,8.702566806832302e-05
6000.0,8.70318788956503e-05
6100.0,8.703839986492348e-05
6200.0,8.704563704433821e-05
6300.0,8.705290691411651e-05
6400.0,8.705957881917916e-05
6500.0,8.706608493735619e-05
6600.0,8.707242547084658e-05
6700.0,8.707824853571246e-05
6800.0,8.70835805652827e-05
6900.0,8.708884470807813e-05
7000.0,8.709403482031016e-05
7100.0,8.709875999045835e-05
7200.0,8.710301503338609e-05
7300.0,8.710722118031386e-05
7400.0,8.711137075177935e-05
7500.0,8.711546884502031e-05
7600.0,8.711952969412147e-05
7700.0,8.712354192905304e-05
7800.0,8.712790015448976e-05
7900.0,8.713304482118312e-05
8000.0,8.713825828856941e-05
8100.0,8.714290840410643e-05
8200.0,8.714742938980736e-05
8300.0,8.715183942430157e-05
8400.0,8.71561628772897e-05
8500.0,8.71600048048352e-05
8600.0,8.716337336817257e-05
8700.0,8.71667137718262e-05
8800.0,8.717001930614623e-05
8900.0,8.717327487261962e-05
9000.0,8.717647742639438e-05
9100.0,8.717963605700065e-05
9200.0,8.718276796123966e-05
9300.0,8.718587292739297e-05
9400.0,8.718935797626786e-05
9500.0,8.719321688749244e-05
9600.0,8.719741239097562e-05
9700.0,8.720198510506337e-05
9800.0,8.720647665386672e-05
9900.0,8.721129653781906e-05
10000.0,8.721645688420595e-05
10100.0,8.72219367904982e-05
10200.0,8.72277607050339e-05
10300.0,8.72334714602681e-05
10400.0,8.723950112104303e-05
10500.0,8.724544358362444e-05
10600.0,8.725126608333231e-05
10700.0,8.725742985759836e-05
10800.0,8.726389801876834e-05
10900.0,8.72702834813843e-05
11000.0,8.727654339551463e-05
11100.0,8.728313807900256e-05
11200.0,8.72892029452413e-05
11300.0,8.729473528755638e-05
11400.0,8.730018637710976e-05
11500.0,8.730556473428286e-05
11600.0,8.731002093482172e-05
11700.0,8.731354831210565e-05
11800.0,8.731706914602982e-05
11900.0,8.73205683799325e-05
12000.0,8.732403431480496e-05
12100.0,8.732745994721363e-05
12200.0,8.733042271537908e-05
12300.0,8.733291796200144e-05
12400.0,8.733540050221783e-05
12500.0,8.733786211573131e-05
12600.0,8.734029692037566e-05
12700.0,8.734227373577904e-05
12800.0,8.734378817527004e-05
12900.0,8.734530486009212e-05
13000.0,8.734680537995396e-05
13100.0,8.734828365825835e-05
13200.0,8.734974661346458e-05
13300.0,8.735078317723347e-05
13400.0,8.73517977395247e-05
13500.0,8.735282909398189e-05
13600.0,8.735342157104291e-05
13700.0,8.735402145623266e-05
13800.0,8.73546239276491e-05
13900.0,8.735522447502066e-05
14000.0,8.735582039217926e-05
14100.0,8.735641006976808e-05
14200.0,8.73569925654067e-05
14300.0,8.735756734609358e-05
14400.0,8.73581341309183e-05
14500.0,8.735869279422035e-05
14600.0,8.73592433057547e-05
14700.0,8.735978569366936e-05
14800.0,8.736032002158644e-05
14900.0,8.736084637441445e-05
15000.0,8.73613648495687e-05
15100.0,8.73618755515406e-05
15200.0,8.736238139557923e-05
15300.0,8.736288060635351e-05
15400.0,8.736337226714091e-05
15500.0,8.736385154051927e-05
15600.0,8.736431164457317e-05
15700.0,8.73647629496249e-05
15800.0,8.736520462148434e-05
15900.0,8.736563885860159e-05
16000.0,8.736606670712076e-05
16100.0,8.736648821148471e-05
16200.0,8.736690343495966e-05
16300.0,8.736731245201007e-05
16400.0,8.736771534353505e-05
16500.0,8.736811219390488e-05
16600.0,8.736850526928e-05
16700.0,8.736889319138295e-05
16800.0,8.736927524974952e-05
16900.0,8.736965152788704e-05
17000.0,8.737002211092209e-05
17100.0,8.737038708401367e-05
17200.0,8.737074653160436e-05
17300.0,8.737110053711745e-05
17400.0,8.737144918283334e-05
17500.0,8.737179254984132e-05
17600.0,8.737213071802801e-05
17700.0,8.737246376608142e-05
17800.0,8.73728009164772e-05
17900.0,8.737315499093203e-05
18000.0,8.737372224976395e-05
18100.0,8.737501502026159e-05
18200.0,8.737710207438696e-05
18300.0,8.737997809333345e-05
18400.0,8.738383747294922e-05
18500.0,8.738897537153976e-05
18600.0,8.739493622770383e-05
18700.0,8.740186325250207e-05
18800.0,8.741023739802193e-05
18900.0,8.741990316113209e-05
19000.0,8.743025399643345e-05
19100.0,8.74389058520201e-05
19200.0,8.744713874675625e-05
19300.0,8.745523459374192e-05
19400.0,8.746175650972046e-05
19500.0,8.746793647236955e-05
19600.0,8.747406009042726e-05
19700.0,8.74786656327827e-05
19800.0,8.748298978504715e-05
19900.0,8.74872796856948e-05
20000.0,8.749153262908867e-05
20100.0,8.749499729745028e-05
20200.0,8.749830521028126e-05
20300.0,8.750086565589127e-05
20400.0,8.750329139351741e-05
20500.0,8.750496784836148e-05
20600.0,8.750652197838072e-05
20700.0,8.750808382211237e-05
20800.0,8.750964190269452e-05
20900.0,8.751118872316773e-05
21000.0,8.751271972562606e-05
21100.0,8.751423224553761e-05
21200.0,8.751498404005368e-05
21300.0,8.751560927991164e-05
21400.0,8.751624617177598e-05
21500.0,8.751688687968694e-05
21600.0,8.751752616408829e-05
21700.0,8.751816087860357e-05
21800.0,8.751877208643484e-05
21900.0,8.75193733097997e-05
22000.0,8.751996710743778e-05
22100.0,8.751981307317797e-05
22200.0,8.751954522566856e-05
22300.0,8.75193017451939e-05
22400.0,8.751907492452345e-05
22500.0,8.751885951908045e-05
22600.0,8.751866935783836e-05
22700.0,8.75184878137478e-05
22800.0,8.751831044180278e-05
22900.0,8.751813662587467e-05
23000.0,8.751796598015082e-05
23100.0,8.751779825032487e-05
23200.0,8.751763326426284e-05
23300.0,8.75174709009469e-05
23400.0,8.751731107150258e-05
23500.0,8.751641445902849e-05
23600.0,8.751541459471883e-05
23700.0,8.751444979517352e-05
23800.0,8.751351229770492e-05
23900.0,8.751259677551418e-05
24000.0,8.751169989767143e-05
24100.0,8.751081953746713e-05
24200.0,8.750995430595116e-05
24300.0,8.75091032698129e-05
24400.0,8.750826577841725e-05
24500.0,8.750744135713358e-05
24600.0,8.75066296413763e-05
24700.0,8.750583033577136e-05
24800.0,8.750504318885903e-05
24900.0,8.750426219869001e-05
25000.0,8.750349296450821e-05
25100.0,8.750273544762449e-05
25200.0,8.750198945929714e-05
25300.0,8.750126545160246e-05
25400.0,8.750055969289282e-05
25500.0,8.75005782715388e-05
25600.0,8.750000120233805e-05
25700.0,8.750000877087872e-05
25800.0,8.749942780154051e-05
25900.0,8.749943633047534e-05
26000.0,8.749882705331492e-05
26100.0,8.749809753447957e-05
26200.0,8.749739072887701e-05
26300.0,8.749670225559992e-05
26400.0,8.749602886884719e-05
26500.0,8.749536853650767e-05
26600.0,8.749471995377562e-05
26700.0,8.749408225979565e-05
26800.0,8.749345486758187e-05
26900.0,8.749283736008978e-05
27000.0,8.749222942620555e-05
27100.0,8.749163082118948e-05
27200.0,8.74910413421884e-05
27300.0,8.749046081306462e-05
27400.0,8.748988907498802e-05
27500.0,8.74893217930778e-05
27600.0,8.748876302731427e-05
27700.0,8.74882127577617e-05
27800.0,8.748767085321435e-05
27900.0,8.748713718406958e-05
28000.0,8.748661162361944e-05
28100.0,8.748609404777123e-05
28200.0,8.748558433474467e-05
28300.0,8.748508236484373e-05
28400.0,8.748458802030894e-05
28500.0,8.748365107251383e-05
28600.0,8.748288272553702e-05
28700.0,8.748172331206222e-05
28800.0,8.748046176103979e-05
28900.0,8.747923317441049e-05
29000.0,8.747873895126572e-05
29100.0,8.747836946308245e-05
29200.0,8.747798987429716e-05
29300.0,8.747760595388837e-05
29400.0,8.7477221655274e-05
29500.0,8.747683934606016e-05
29600.0,8.747646044766772e-05
29700.0,8.74760858046598e-05
29800.0,8.747571590706314e-05
29900.0,8.747535102638926e-05
30000.0,8.747499129943789e-05
30100.0,8.747463678008187e-05
30200.0,8.747428747130397e-05
30300.0,8.747394334502714e-05
30400.0,8.747360435438741e-05
30500.0,8.74732704413284e-05
30600.0,8.747294154129959e-05
30700.0,8.747261758670562e-05
30800.0,8.747229850650507e-05
30900.0,8.747198423049439e-05
31000.0,8.747167468814044e-05
31100.0,8.747136980917665e-05
31200.0,8.747106952398033e-05
31300.0,8.747077376372071e-05
31400.0,8.747048246044661e-05
31500.0,8.747019554713244e-05
31600.0,8.746917448945836e-05
31700.0,8.746879058197498e-05
31800.0,8.746781066289323e-05
31900.0,8.746673850886945e-05
32000.0,8.746570025225292e-05
32100.0,8.746468690913442e-05
32200.0,8.746369450802491e-05
32300.0,8.746272055642934e-05
32400.0,8.746176343664029e-05
32500.0,8.746082206753235e-05
32600.0,8.745989569984397e-05
32700.0,8.745898379359818e-05
32800.0,8.745808592952654e-05
32900.0,8.745790848029033e-05
33000.0,8.745713875121134e-05
33100.0,8.745695665710967e-05
33200.0,8.745689590439058e-05
33300.0,8.745682167944754e-05
33400.0,8.745673926888685e-05
33500.0,8.745665238516035e-05
33600.0,8.745656328324875e-05
33700.0,8.74564733422276e-05
33800.0,8.745638340582617e-05
33900.0,8.745629398813796e-05
34000.0,8.745620539967173e-05
34100.0,8.745611782507395e-05
34200.0,8.745603137117451e-05
34300.0,8.745594609672285e-05
34400.0,8.74558620307992e-05
34500.0,8.745577918421606e-05
34600.0,8.745569755657835e-05
34700.0,8.745561714068294e-05
34800.0,8.74555379250982e-05
34900.0,8.745545989604828e-05
35000.0,8.745538303831235e-05
35100.0,8.745530733588094e-05
35200.0,8.745523277236216e-05
35300.0,8.745515933122476e-05
35400.0,8.74550869959475e-05
35500.0,8.745427754412608e-05
35600.0,8.745410188478043e-05
35700.0,8.745332722287536e-05
35800.0,8.74524403213259e-05
35900.0,8.745158180391201e-05
36000.0,8.745074593363014e-05
36100.0,8.744992861351467e-05
36200.0,8.744914430389741e-05
36300.0,8.744837677218846e-05
36400.0,8.744762174258287e-05
36500.0,8.74468786556866e-05
36600.0,8.74461471118083e-05
36700.0,8.744542680157402e-05
36800.0,8.74447174674521e-05
36900.0,8.744401889219423e-05
37000.0,8.74433308813148e-05
37100.0,8.744264822370904e-05
37200.0,8.7441975797892e-05
37300.0,8.744131357878934e-05
37400.0,8.744066140742006e-05
37500.0,8.744001912785712e-05
37600.0,8.74393865878588e-05
37700.0,8.743876363848441e-05
37800.0,8.743815013365517e-05
37900.0,8.743754592983622e-05
38000.0,8.743695088583357e-05
38100.0,8.743680552404602e-05
38200.0,8.74365216440961e-05
38300.0,8.743663618312736e-05
38400.0,8.743615663952074e-05
38500.0,8.743626579313715e-05
38600.0,8.743578853294977e-05
38700.0,8.743590114670778e-05
38800.0,8.743613469443798e-05
38900.0,8.743635287078014e-05
39000.0,8.743585341177403e-05
39100.0,8.743595175246001e-05
39200.0,8.743617635655975e-05
39300.0,8.743638885290916e-05
39400.0,8.743588572629651e-05
39500.0,8.74359816457185e-05
39600.0,8.743620460076677e-05
39700.0,8.743641592920985e-05
39800.0,8.743591193499497e-05
39900.0,8.743600717538657e-05
40000.0,8.743622956922215e-05
40100.0,8.743644041220395e-05
40200.0,8.743593598161981e-05
40300.0,8.743603082597413e-05
40400.0,8.74362528312476e-05
40500.0,8.743575669238645e-05
40600.0,8.743585758947467e-05
40700.0,8.743608427069223e-05
40800.0,8.743629856048036e-05
40900.0,8.743579703802645e-05
41000.0,8.743589446020795e-05
41100.0,8.743611882073696e-05
41200.0,8.743633149968601e-05
41300.0,8.74358288065922e-05
41400.0,8.743592533330204e-05
41500.0,8.743614896986427e-05
41600.0,8.743636103438294e-05
41700.0,8.743585779740286e-05
41800.0,8.743521572431419e-05
41900.0,8.743459536164197e-05
42000.0,8.743399607999282e-05
42100.0,8.743341304795744e-05
42200.0,8.743284324728057e-05
42300.0,8.743230179044833e-05
42400.0,8.743177287776835e-05
42500.0,8.743125252008072e-05
42600.0,8.743074035232336e-05
42700.0,8.743023611476577e-05
42800.0,8.742973960239892e-05
42900.0,8.742925064562407e-05
43000.0,8.742876909762423e-05
43100.0,8.742829482637833e-05
43200.0,8.742782770966372e-05
43300.0,8.74273642208515e-05
43400.0,8.742690766785567e-05
43500.0,8.742645803708816e-05
43600.0,8.742601849508028e-05
43700.0,8.742558564980122e-05
43800.0,8.742515615871276e-05
43900.0,8.742473308467465e-05
44000.0,8.742431641913896e-05
44100.0,8.742390606736102e-05
44200.0,8.74235019344065e-05
44300.0,8.74231039262416e-05
44400.0,8.74227119755724e-05
44500.0,8.742232597576097e-05
44600.0,8.742194582437858e-05
44700.0,8.74215714311221e-05
44800.0,8.7421202696631e-05
44900.0,8.742083953970429e-05
45000.0,8.742048188287173e-05
45100.0,8.742012964515382e-05
45200.0,8.741978274520581e-05
45300.0,8.741944110238115e-05
45400.0,8.741910465894572e-05
45500.0,8.741877332339194e-05
45600.0,8.741844700782203e-05
45700.0,8.741812563473974e-05
45800.0,8.741780911885055e-05
45900.0,8.74174973904607e-05
46000.0,8.741719038308456e-05
46100.0,8.741688802721885e-05
46200.0,8.741659025304528e-05
46300.0,8.741629699134641e-05
46400.0,8.741600819257317e-05
46500.0,8.741572377818218e-05
46600.0,8.741544367272808e-05
46700.0,8.741551761906499e-05
46800.0,8.741548582698571e-05
46900.0,8.741568930623328e-05
47000.0,8.741571741923321e-05
47100.0,8.741542558914341e-05
47200.0,8.741585800584815e-05
47300.0,8.74156801194058e-05
47400.0,8.74153927406586e-05
47500.0,8.741582881232035e-05
47600.0,8.741565248306517e-05
47700.0,8.741607272010846e-05
47800.0,8.741588702723646e-05
47900.0,8.74155767407917e-05
48000.0,8.741600563664438e-05
48100.0,8.741582603911297e-05
48200.0,8.741551977863756e-05
48300.0,8.741595144597133e-05
48400.0,8.741577384748349e-05
48500.0,8.741546910334852e-05
48600.0,8.741590198659478e-05
48700.0,8.7415725413895e-05
48800.0,8.741542157161673e-05
48900.0,8.741585527800393e-05
49000.0,8.741567947568923e-05
49100.0,8.741539336924705e-05
49200.0,8.741583021076213e-05
49300.0,8.741565434198545e-05
49400.0,8.741607484968593e-05
49500.0,8.741588930919393e-05
49600.0,8.74155791030251e-05
49700.0,8.741600803443818e-05
49800.0,8.741582844436701e-05
49900.0,8.741552217507343e-05
50000.0,8.741595382341217e-05
50100.0,8.741577619921261e-05
50200.0,8.741547142632253e-05
50300.0,8.741590427883031e-05
50400.0,8.741572767374227e-05
50500.0,8.741542379915833e-05
50600.0,8.741585747318838e-05
50700.0,8.741568163805466e-05
50800.0,8.741539549958053e-05
50900.0,8.741583230928181e-05
51000.0,8.741565640903118e-05
51100.0,8.741607688571887e-05
51200.0,8.741589130777839e-05
51300.0,8.741558105097478e-05
51400.0,8.741600995716426e-05
51500.0,8.741583035231005e-05
51600.0,8.741552403705565e-05
51700.0,8.741595566110841e-05
51800.0,8.741577802317177e-05
51900.0,8.741547320543835e-05
52000.0,8.74159060348179e-05
52100.0,8.74157294171684e-05
52200.0,8.741542549891722e-05
52300.0,8.741585915099189e-05
52400.0,8.741568330195284e-05
52500.0,8.741539712324706e-05
52600.0,8.74150959646626e-05
52700.0,8.741480018683108e-05
52800.0,8.74145132568271e-05
52900.0,8.741423337235226e-05
53000.0,8.741395938295829e-05
53100.0,8.741369055690346e-05
53200.0,8.74134264191971e-05
53300.0,8.741316665345177e-05
53400.0,8.74129110416628e-05
53500.0,8.741265942705228e-05
53600.0,8.741241169108519e-05
53700.0,8.741216773923846e-05
53800.0,8.741192749217975e-05
53900.0,8.741169088030085e-05
54000.0,8.741145784032591e-05
54100.0,8.741122831320396e-05
54200.0,8.741100224280099e-05
54300.0,8.741077957508448e-05
54400.0,8.741056025788966e-05
54500.0,8.741034423954435e-05
54600.0,8.741013147012033e-05
54700.0,8.740992190050777e-05
54800.0,8.74097154823978e-05
54900.0,8.740951216827912e-05
55000.0,8.740931191139996e-05
55100.0,8.740911466573836e-05
55200.0,8.740892038598212e-05
55300.0,8.740872902751158e-05
55400.0,8.740854054638368e-05
55500.0,8.740835489932124e-05
55600.0,8.740817204370067e-05
55700.0,8.740799193754024e-05
55800.0,8.740781453949163e-05
55900.0,8.740763980882883e-05
56000.0,8.740746770543868e-05
56100.0,8.740729818981107e-05
56200.0,8.740713122303127e-05
56300.0,8.740696676677016e-05
56400.0,8.740680478339673e-05
56500.0,8.740664523550046e-05
56600.0,8.74064880865351e-05
56700.0,8.740633330044983e-05
56800.0,8.740618084171257e-05
56900.0,8.740603067532462e-05
57000.0,8.740588276681499e-05
57100.0,8.740573708223075e-05
57200.0,8.740559358812922e-05
57300.0,8.740545225157101e-05
57400.0,8.740531304011299e-05
57500.0,8.740517592179865e-05
57600.0,8.740504086515277e-05
57700.0,8.740490783917413e-05
57800.0,8.740477681332663e-05
57900.0,8.740464775753461e-05
58000.0,8.74045206421738e-05
58100.0,8.74043954380658e-05
58200.0,8.740427211647109e-05
58300.0,8.740415064908228e-05
58400.0,8.740403100808514e-05
58500.0,8.740391316589372e-05
58600.0,8.740379709550298e-05
58700.0,8.740368277028367e-05
58800.0,8.740357016399322e-05
58900.0,8.740345925078489e-05
59000.0,8.740335000520027e-05
59100.0,8.740324240216372e-05
59200.0,8.740313641697731e-05
59300.0,8.740303202531388e-05
59400.0,8.740292920321229e-05
59500.0,8.740282792707186e-05
59600.0,8.740272817364648e-05
59700.0,8.740262992004047e-05
59800.0,8.740253314370173e-05
59900.0,8.740243782241762e-05
60000.0,8.740234393430949e-05
60100.0,8.740225145782749e-05
60200.0,8.740216037174643e-05
60300.0,8.74020706551596e-05
60400.0,8.740198228751165e-05
60500.0,8.740189524845302e-05
60600.0,8.740180951802999e-05
60700.0,8.740172507657269e-05
60800.0,8.740164190470085e-05
60900.0,8.740155998332463e-05
61000.0,8.740147929364102e-05
61100.0,8.740139981713089e-05
61200.0,8.74013215355527e-05
61300.0,8.740124443093952e-05
61400.0,8.740116848559466e-05
61500.0,8.740109368208752e-05
61600.0,8.740102000324967e-05
61700.0,8.740094743217073e-05
61800.0,8.740087595219444e-05
61900.0,8.740080554691525e-05
62000.0,8.740073620017467e-05
62100.0,8.740066789605655e-05
62200.0,8.740060061888461e-05
62300.0,8.740053435321757e-05
62400.0,8.74004690838669e-05
62500.0,8.740040479581596e-05
62600.0,8.740034147432295e-05
62700.0,8.740027910485942e-05
62800.0,8.740021767311092e-05
62900.0,8.74001571649777e-05
63000.0,8.740009756657352e-05
63100.0,8.740003886421969e-05
63200.0,8.739998104444372e-05
63300.0,8.739992409397569e-05
63400.0,8.739986799974511e-05
63500.0,8.73998127488781e-05
63600.0,8.739975832869455e-05
63700.0,8.739970472670467e-05
63800.0,8.739965193060666e-05
63900.0,8.73995999282834e-05
64000.0,8.739954870780068e-05
64100.0,8.7399498257403e-05
64200.0,8.739944856551227e-05
64300.0,8.739939962072351e-05
64400.0,8.739935141181467e-05
64500.0,8.739930392770244e-05
64600.0,8.739925715749629e-05
64700.0,8.73992110904642e-05
64800.0,8.739916571603368e-05
64900.0,8.73991210237918e-05
65000.0,8.739907700348144e-05
65100.0,8.7399033645e-05
65200.0,8.739899093839696e-05
65300.0,8.739894887387145e-05
65400.0,8.739890744176899e-05
65500.0,8.739886663258176e-05
65600.0,8.739882643694388e-05
65700.0,8.73987868456305e-05
65800.0,8.739874784955609e-05
65900.0,8.73987094397708e-05
66000.0,8.739867160745955e-05
66100.0,8.739863434394061e-05
66200.0,8.73985976406617e-05
66300.0,8.739856148920008e-05
66400.0,8.739852588126519e-05
66500.0,8.739849080867371e-05
66600.0,8.739845626338098e-05
66700.0,8.739842223746004e-05
66800.0,8.73983887231021e-05
66900.0,8.739835571261622e-05
67000.0,8.739832319842686e-05
67100.0,8.739829117307161e-05
