M.H_b.TA Time [a],M.H_b.TA TA [mol/kg]
0.0,0.002345
100.0,0.0023443467455356764
200.0,0.0023440891696298455
300.0,0.002344182121487389
400.0,0.0023443018180765154
500.0,0.0023444225585475356
600.0,0.0023445386687034457
700.0,0.0023446497778793875
800.0,0.00234475408582996
900.0,0.0023448524023587315
1000.0,0.0023449438674100678
1100.0,0.0023450305581969155
1200.0,0.0023451108929307585
1300.0,0.0023451860041920998
1400.0,0.0023452573196478103
1500.0,0.0023453245338362623
1600.0,0.0023453876834301887
1700.0,0.0023454456133342465
1800.0,0.0023455000732237473
1900.0,0.002345551761701369
2000.0,0.0023456010739494318
2100.0,0.0023456472374636874
2200.0,0.0023456918539654895
2300.0,0.0023457357288155234
2400.0,0.0023457789530302426
2500.0,0.0023458215616119515
2600.0,0.002345863486797822
2700.0,0.0023459048254746715
2800.0,0.0023459454844998538
2900.0,0.002345985579875176
3000.0,0.0023460250271824987
3100.0,0.0023460639070384095
3200.0,0.002346102186781958
3300.0,0.002346139886250468
3400.0,0.002346177035354256
3500.0,0.002346213575201135
3600.0,0.002346249624044359
3700.0,0.002346285063776595
3800.0,0.0023463200249138894
3900.0,0.002346354422605059
4000.0,0.0023463883011897078
4100.0,0.002346421685478633
4200.0,0.002346454535608152
4300.0,0.0023464869186132424
4400.0,0.00234651880997587
4500.0,0.0023465501760026714
4600.0,0.002346581124364083
4700.0,0.0023466115787414365
4800.0,0.002346641543458811
4900.0,0.00234667112428622
5000.0,0.002346700188694035
5100.0,0.0023467288361920346
5200.0,0.002346757076509197
5300.0,0.0023467848487110955
5400.0,0.002346812218058503
5500.0,0.0023468391893516033
5600.0,0.0023468657382490995
5700.0,0.002346891853352817
5800.0,0.00234691762756976
5900.0,0.0023469430109558554
6000.0,0.0023469679319616343
6100.0,0.00234699255240012
6200.0,0.002347016814267581
6300.0,0.002347040638960823
6400.0,0.002347064113149074
6500.0,0.0023470873033729495
6600.0,0.0023471100831078083
6700.0,0.0023471324993932573
6800.0,0.0023471546259072273
6900.0,0.0023471764103963734
7000.0,0.0023471978503881814
7100.0,0.002347218955047458
7200.0,0.002347239744982137
7300.0,0.002347260252305958
7400.0,0.002347280443308993
7500.0,0.0023473002812516497
7600.0,0.0023473198173034684
7700.0,0.0023473391282341372
7800.0,0.0023473581439875813
7900.0,0.002347376799007446
8000.0,0.002347395146785239
8100.0,0.0023474133181031363
8200.0,0.0023474312220147747
8300.0,0.002347448786529321
8400.0,0.002347466070566723
8500.0,0.002347483097027982
8600.0,0.0023474999542972474
8700.0,0.0023475165047696467
8800.0,0.002347532789980749
8900.0,0.0023475488211763366
9000.0,0.002347564601702697
9100.0,0.0023475801830164385
9200.0,0.0023475955328360037
9300.0,0.0023476106433585656
9400.0,0.002347625516898543
9500.0,0.002347640137572149
9600.0,0.0023476545005521633
9700.0,0.0023476687414830592
9800.0,0.0023476827709156766
9900.0,0.002347696580905791
10000.0,0.0023477101461761604
10100.0,0.002347723453473086
10200.0,0.0023477365530371118
10300.0,0.0023477495622919904
10400.0,0.002347762389066926
10500.0,0.002347775008428968
10600.0,0.0023477873706423758
10700.0,0.002347799530409021
10800.0,0.0023478115002065277
10900.0,0.002347823300947288
11000.0,0.0023478350253853726
11100.0,0.0023478465594409777
11200.0,0.0023478578631629795
11300.0,0.002347868982766865
11400.0,0.00234787993067422
11500.0,0.0023478907084152558
11600.0,0.0023479013173756287
11700.0,0.002347911814124665
11800.0,0.002347922165581863
11900.0,0.0023479323455095906
12000.0,0.002347942366506054
12100.0,0.002347952231227169
12200.0,0.0023479619414667726
12300.0,0.0023479714996548513
12400.0,0.002347980907271196
12500.0,0.0023479900992927436
12600.0,0.0023479992408619067
12700.0,0.0023480082761587126
12800.0,0.0023480171733322695
12900.0,0.0023480259321764633
13000.0,0.002348034553667641
13100.0,0.002348043039939779
13200.0,0.0023480513834030704
13300.0,0.0023480595391397563
13400.0,0.0023480675544066223
13500.0,0.0023480754459657338
13600.0,0.002348083315990428
13700.0,0.002348091100156524
13800.0,0.0023480987641519672
13900.0,0.0023481063093263965
14000.0,0.002348113737360461
14100.0,0.00234812103376949
14200.0,0.002348128161904184
14300.0,0.0023481351681000667
14400.0,0.002348142066379702
14500.0,0.002348148858229115
14600.0,0.002348155543950351
14700.0,0.0023481621323621768
14800.0,0.002348168732289057
14900.0,0.002348175246903664
15000.0,0.0023481816588038504
15100.0,0.00234818797155982
15200.0,0.002348194127646708
15300.0,0.0023482001659501715
15400.0,0.0023482061103040405
15500.0,0.0023482119639396354
15600.0,0.0023482177264588797
15700.0,0.002348223398602182
15800.0,0.0023482289818104714
15900.0,0.00234823447758199
16000.0,0.0023482398872318204
16100.0,0.0023482452122135494
16200.0,0.0023482505338333717
16300.0,0.0023482558298804925
16400.0,0.0023482610013553467
16500.0,0.00234826606139356
16600.0,0.002348271040120579
16700.0,0.002348275941804336
16800.0,0.0023482807672579958
16900.0,0.00234828551716497
17000.0,0.0023482901926088376
17100.0,0.0023482947948023705
17200.0,0.0023482993249197394
17300.0,0.0023483037841038634
17400.0,0.002348308173365084
17500.0,0.0023483124938169083
17600.0,0.002348316746593535
17700.0,0.002348320932778634
17800.0,0.002348325053407519
17900.0,0.0023483290681547485
18000.0,0.0023483330131578465
18100.0,0.002348336999625734
18200.0,0.00234834093217209
18300.0,0.0023483448029606394
18400.0,0.0023483486146989724
18500.0,0.0023483523670794772
18600.0,0.0023483560606044696
18700.0,0.0023483596961823712
18800.0,0.0023483632748326844
18900.0,0.0023483667974487097
19000.0,0.0023483702649943665
19100.0,0.002348373678234521
19200.0,0.0023483770380038015
19300.0,0.002348380345141664
19400.0,0.0023483836004749626
19500.0,0.0023483868048121068
19600.0,0.0023483899588961615
19700.0,0.0023483930635198524
19800.0,0.0023483961148140792
19900.0,0.0023483990500940666
20000.0,0.0023484019334765933
20100.0,0.0023484047728521665
20200.0,0.002348407568738689
20300.0,0.0023484103211938692
20400.0,0.0023484130305742087
20500.0,0.0023484156975010382
20600.0,0.002348418374156828
20700.0,0.002348421092517477
20800.0,0.0023484237742896126
20900.0,0.002348426413668463
21000.0,0.0023484290113147547
21100.0,0.0023484315694819913
21200.0,0.0023484340877365593
21300.0,0.002348436566458257
21400.0,0.0023484390062986538
21500.0,0.002348441407988297
21600.0,0.002348443772004074
21700.0,0.0023484460989916744
21800.0,0.0023484483895819886
21900.0,0.0023484506442862534
22000.0,0.0023484528636601265
22100.0,0.0023484550482589677
22200.0,0.0023484571986160992
22300.0,0.00234845931529198
22400.0,0.002348461398756246
22500.0,0.002348463449545663
22600.0,0.0023484654560823113
22700.0,0.0023484673636140854
22800.0,0.002348469240817485
22900.0,0.00234847108886925
23000.0,0.00234847290958638
23100.0,0.0023484747030419226
23200.0,0.002348476468834427
23300.0,0.0023484782070619307
23400.0,0.002348479918075404
23500.0,0.00234848160229364
23600.0,0.00234848326014035
23700.0,0.002348484892031075
23800.0,0.002348486498347492
23900.0,0.00234848807953032
24000.0,0.002348489635919524
24100.0,0.002348491167925349
24200.0,0.0023484926759454166
24300.0,0.002348494160359353
24400.0,0.0023484956215354294
24500.0,0.0023484970598359424
24600.0,0.0023484984756185984
24700.0,0.002348499869236062
24800.0,0.002348501241035479
24900.0,0.002348502621314457
25000.0,0.0023485040798102773
25100.0,0.002348505526811375
25200.0,0.0023485069517139696
25300.0,0.002348508353828513
25400.0,0.0023485097339395107
25500.0,0.0023485110926897133
25600.0,0.00234851243045811
25700.0,0.00234851374728487
25800.0,0.0023485150434118347
25900.0,0.0023485163192569006
26000.0,0.0023485175751346184
26100.0,0.0023485188113290677
26200.0,0.0023485200281492965
26300.0,0.0023485212258986337
26400.0,0.0023485224048577506
26500.0,0.002348523565350683
26600.0,0.0023485247076287558
26700.0,0.0023485258319942233
26800.0,0.002348526938739183
26900.0,0.002348528028142484
27000.0,0.002348529100474849
27100.0,0.002348530156002725
27200.0,0.0023485311949891867
27300.0,0.002348532217693572
27400.0,0.0023485332243711435
27500.0,0.002348534213084884
27600.0,0.002348535118504435
27700.0,0.0023485360005203928
27800.0,0.002348536867161684
27900.0,0.002348537722688351
28000.0,0.0023485385646610296
28100.0,0.0023485393938176046
28200.0,0.0023485402111937744
28300.0,0.002348541015986151
28400.0,0.00234854180819067
28500.0,0.002348542587988745
28600.0,0.002348543355573918
28700.0,0.0023485441111385174
28800.0,0.0023485448548713267
28900.0,0.002348545586957754
29000.0,0.002348546307580161
29100.0,0.0023485470169124735
29200.0,0.0023485477151308667
29300.0,0.0023485484024017476
29400.0,0.0023485490789060186
29500.0,0.002348549744817391
29600.0,0.002348550400302446
29700.0,0.002348551045523709
29800.0,0.0023485516806414004
29900.0,0.002348552305813671
30000.0,0.0023485529211963387
30100.0,0.0023485535269427505
30200.0,0.0023485541232038014
30300.0,0.002348554710128004
30400.0,0.002348555287861549
30500.0,0.0023485558565483435
30600.0,0.002348556416330045
30700.0,0.0023485569673461428
30800.0,0.0023485575097338673
30900.0,0.0023485580436284153
31000.0,0.0023485585691626946
31100.0,0.0023485590864675584
31200.0,0.0023485595956718192
31300.0,0.0023485600969023455
31400.0,0.00234856059028394
31500.0,0.002348561075939567
31600.0,0.002348561553990279
31700.0,0.0023485620245551416
31800.0,0.0023485624877514454
31900.0,0.002348562943694496
32000.0,0.0023485633924978243
32100.0,0.0023485638342731876
32200.0,0.0023485642691306557
32300.0,0.0023485646971785077
32400.0,0.0023485651185234267
32500.0,0.002348565533270438
32600.0,0.002348565941522842
32700.0,0.002348566343382398
32800.0,0.002348566738949146
32900.0,0.002348567128321583
33000.0,0.0023485675115966715
33100.0,0.0023485678888699067
33200.0,0.00234856826023523
33300.0,0.0023485686257851985
33400.0,0.002348568985610898
33500.0,0.0023485693398019696
33600.0,0.0023485696884466382
33700.0,0.0023485700316317523
33800.0,0.002348570369442803
33900.0,0.0023485707019639426
34000.0,0.0023485710292780043
34100.0,0.0023485713514665263
34200.0,0.0023485716686097702
34300.0,0.0023485719807867377
34400.0,0.0023485722880751962
34500.0,0.0023485725905516954
34600.0,0.002348572888291585
34700.0,0.0023485731813690353
34800.0,0.002348573469857056
34900.0,0.002348573753827513
35000.0,0.0023485740333511716
35100.0,0.002348574308497653
35200.0,0.0023485745793355474
35300.0,0.00234857484593228
35400.0,0.0023485751083542374
35500.0,0.0023485753666667693
35600.0,0.0023485756209342375
35700.0,0.0023485758712199576
35800.0,0.002348576117586313
35900.0,0.002348576360094693
36000.0,0.0023485765988055123
36100.0,0.002348576833778236
36200.0,0.0023485770650713976
36300.0,0.002348577292742616
36400.0,0.0023485775168486074
36500.0,0.0023485777374452014
36600.0,0.0023485779545873524
36700.0,0.0023485781683291744
36800.0,0.0023485783787239043
36900.0,0.00234857858582399
37000.0,0.0023485787896809916
37100.0,0.0023485789903456727
37200.0,0.0023485791878680063
37300.0,0.002348579382297207
37400.0,0.00234857957368169
37500.0,0.0023485797620691616
37600.0,0.0023485799475065614
37700.0,0.0023485801300400884
37800.0,0.0023485803097152143
37900.0,0.002348580486576697
38000.0,0.0023485806606685987
38100.0,0.0023485808320342877
38200.0,0.002348581000716455
38300.0,0.0023485811667571226
38400.0,0.002348581330197656
38500.0,0.0023485814910787703
38600.0,0.002348581649440546
38700.0,0.002348581805322433
38800.0,0.0023485819587632656
38900.0,0.0023485821098012693
39000.0,0.002348582258474071
39100.0,0.002348582404818708
39200.0,0.002348582548871639
39300.0,0.0023485826906687497
39400.0,0.002348582830245365
39500.0,0.002348582967636258
39600.0,0.002348583102875655
39700.0,0.0023485832359972465
39800.0,0.0023485833670341986
39900.0,0.002348583496019154
40000.0,0.002348583622984245
40100.0,0.002348583747961104
40200.0,0.002348583870980865
40300.0,0.002348583992074174
40400.0,0.0023485841112711988
40500.0,0.0023485842286016354
40600.0,0.002348584344094712
40700.0,0.0023485844577792016
40800.0,0.002348584569683437
40900.0,0.00234858467983529
41000.0,0.0023485847882622206
41100.0,0.0023485848949912247
41200.0,0.0023485850000488796
41300.0,0.002348585103461348
41400.0,0.0023485852052543984
41500.0,0.00234858530545338
41600.0,0.002348585404083268
41700.0,0.0023485855011686385
41800.0,0.0023485855967336805
41900.0,0.0023485856908022013
42000.0,0.002348585783397634
42100.0,0.0023485858745430454
42200.0,0.0023485859642611443
42300.0,0.002348586052574282
42400.0,0.002348586139504459
42500.0,0.002348586225073331
42600.0,0.002348586309302217
42700.0,0.0023485863922121
42800.0,0.0023485864738236354
42900.0,0.002348586554157154
43000.0,0.002348586633232669
43100.0,0.002348586711069883
43200.0,0.0023485867876881844
43300.0,0.0023485868631066614
43400.0,0.0023485869373441035
43500.0,0.0023485870104190047
43600.0,0.0023485870823495704
43700.0,0.002348587153153722
43800.0,0.002348587222849096
43900.0,0.0023485872914530566
44000.0,0.0023485873622251952
44100.0,0.002348587549037833
44200.0,0.002348587749932549
44300.0,0.002348587950739854
44400.0,0.0023485881494966893
44500.0,0.002348588345307289
44600.0,0.0023485885381723404
44700.0,0.0023485887279918517
44800.0,0.0023485889147066156
44900.0,0.0023485890982693483
45000.0,0.002348589278875308
45100.0,0.0023485894567538555
45200.0,0.0023485896320916246
45300.0,0.0023485898047600475
45400.0,0.002348589974736553
45500.0,0.002348590141734769
45600.0,0.002348590305991991
45700.0,0.0023485904677076255
45800.0,0.002348590626941398
45900.0,0.0023485907838827792
46000.0,0.0023485909384747595
46100.0,0.0023485910906744546
46200.0,0.0023485912404927938
46300.0,0.0023485913879617982
46400.0,0.0023485915331183074
46500.0,0.002348591675999113
46600.0,0.0023485918166397065
46700.0,0.0023485919550761047
46800.0,0.002348592091339509
46900.0,0.002348592225464813
47000.0,0.002348592357487547
47100.0,0.0023485924874407007
47200.0,0.002348592615360256
47300.0,0.0023485927412758433
47400.0,0.0023485928652184343
47500.0,0.0023485929872155715
47600.0,0.0023485931072984327
47700.0,0.002348593225498855
47800.0,0.0023485933418463827
47900.0,0.0023485934563732282
48000.0,0.002348593569105913
48100.0,0.002348593680072165
48200.0,0.0023485937892966436
48300.0,0.002348593896807262
48400.0,0.002348594002632524
48500.0,0.0023485941067988804
48600.0,0.0023485942093351706
48700.0,0.0023485943102651424
48800.0,0.00234859440961362
48900.0,0.0023485945074026783
49000.0,0.00234859460365731
49100.0,0.0023485946984030345
49200.0,0.0023485947916635336
49300.0,0.002348594883464629
49400.0,0.0023485949738275788
49500.0,0.0023485950627746086
49600.0,0.0023485951503254866
49700.0,0.0023485952365025846
49800.0,0.0023485953213287507
49900.0,0.00234859540482519
50000.0,0.0023485954870150184
50100.0,0.0023485955679172694
50200.0,0.0023485956475518418
50300.0,0.002348595725936432
50400.0,0.002348595803091072
50500.0,0.002348595879036219
50600.0,0.002348595953790855
50700.0,0.002348596027375677
50800.0,0.002348596099807725
50900.0,0.0023485961711048175
51000.0,0.002348596241282794
51100.0,0.002348596310359592
51200.0,0.002348596378353526
51300.0,0.0023485964452815903
51400.0,0.0023485965111623166
51500.0,0.00234859657601116
51600.0,0.0023485966398437115
51700.0,0.0023485967026757072
51800.0,0.0023485967645225938
51900.0,0.0023485968254001724
52000.0,0.002348596885322159
52100.0,0.002348596944303905
52200.0,0.0023485970023610398
52300.0,0.0023485970595080686
52400.0,0.0023485971157608146
52500.0,0.0023485971711324776
52600.0,0.0023485972256363724
52700.0,0.002348597279285934
52800.0,0.002348597332094352
52900.0,0.0023485973840751185
53000.0,0.0023485974352399465
53100.0,0.002348597485601941
53200.0,0.0023485975351744495
53300.0,0.0023485975839698556
53400.0,0.0023485976320016724
53500.0,0.00234859767928117
53600.0,0.0023485977258197164
53700.0,0.002348597771628784
53800.0,0.0023485978167196338
53900.0,0.002348597861103787
54000.0,0.0023485979047912437
54100.0,0.0023485979477931964
54200.0,0.0023485979901210394
54300.0,0.0023485980317853486
54400.0,0.00234859807279766
54500.0,0.002348598113167598
54600.0,0.002348598152904869
54700.0,0.0023485981920192693
54800.0,0.002348598230520414
54900.0,0.00234859826841814
55000.0,0.0023485983057209866
55100.0,0.00234859834243851
55200.0,0.00234859837858044
55300.0,0.002348598414155807
55400.0,0.0023485984491744597
55500.0,0.0023485984836446178
55600.0,0.002348598517574569
55700.0,0.0023485985509726763
55800.0,0.0023485985838471507
55900.0,0.0023485986162063923
56000.0,0.002348598648057691
56100.0,0.0023485986794092076
56200.0,0.0023485987102692487
56300.0,0.0023485987406455253
56400.0,0.0023485987705464495
56500.0,0.002348598799979036
56600.0,0.0023485988289503623
56700.0,0.002348598857467571
56800.0,0.00234859888553767
56900.0,0.0023485989131678355
57000.0,0.00234859894036429
57100.0,0.0023485989671340017
57200.0,0.002348598993484063
57300.0,0.002348599019421059
57400.0,0.0023485990449521703
57500.0,0.0023485990700833894
57600.0,0.0023485990948207587
57700.0,0.0023485991191703748
57800.0,0.002348599143138225
57900.0,0.0023485991667304327
58000.0,0.002348599189952315
58100.0,0.0023485992128098186
58200.0,0.0023485992353090013
58300.0,0.002348599257455485
58400.0,0.002348599279255401
58500.0,0.0023485993007138655
58600.0,0.002348599321836039
58700.0,0.002348599342627127
58800.0,0.002348599363092242
58900.0,0.0023485993832366124
59000.0,0.002348599403064776
59100.0,0.0023485994225818127
59200.0,0.002348599441792894
59300.0,0.002348599460702822
59400.0,0.002348599479316831
59500.0,0.002348599497639288
59600.0,0.002348599515674601
59700.0,0.002348599533427214
59800.0,0.002348599550901493
59900.0,0.002348599568101901
60000.0,0.002348599585032314
60100.0,0.0023485996016970705
60200.0,0.002348599618100584
60300.0,0.002348599634246955
60400.0,0.002348599650140653
60500.0,0.0023485996657854097
60600.0,0.0023485996811849837
60700.0,0.0023485996963431744
60800.0,0.002348599711263707
60900.0,0.002348599725950392
61000.0,0.002348599740406542
61100.0,0.002348599754635857
61200.0,0.002348599768642109
61300.0,0.002348599782428798
61400.0,0.0023485997959997403
61500.0,0.0023485998093581216
61600.0,0.0023485998225071534
61700.0,0.0023485998354500757
61800.0,0.002348599848190074
61900.0,0.0023485998607304013
62000.0,0.0023485998730738817
62100.0,0.0023485998852236793
62200.0,0.002348599897183013
62300.0,0.00234859990895487
62400.0,0.0023485999205425114
62500.0,0.002348599931948656
62600.0,0.0023485999431760458
62700.0,0.002348599954227449
62800.0,0.0023485999650995344
62900.0,0.0023485999758039054
63000.0,0.0023485999862997
63100.0,0.0023485999966252687
63200.0,0.002348600006788758
63300.0,0.002348600016793556
63400.0,0.0023486000266422723
63500.0,0.0023486000363373634
63600.0,0.002348600045881228
63700.0,0.0023486000552762247
63800.0,0.002348600064524678
63900.0,0.0023486000736288727
64000.0,0.002348600082591058
64100.0,0.0023486000914134503
64200.0,0.0023486001000982307
64300.0,0.002348600108647544
64400.0,0.002348600117063503
64500.0,0.002348600125348189
64600.0,0.002348600133503649
64700.0,0.002348600141531899
64800.0,0.002348600149434924
64900.0,0.002348600157214676
65000.0,0.0023486001648730785
65100.0,0.0023486001724120236
65200.0,0.002348600179833376
65300.0,0.0023486001871389686
65400.0,0.0023486001943306065
65500.0,0.0023486002014100685
65600.0,0.0023486002083791045
65700.0,0.0023486002152394363
65800.0,0.00234860022199276
65900.0,0.0023486002286407437
66000.0,0.0023486002351850318
66100.0,0.0023486002416272405
66200.0,0.0023486002479689632
66300.0,0.0023486002542117673
66400.0,0.002348600260357194
66500.0,0.0023486002664067636
66600.0,0.0023486002723619713
66700.0,0.0023486002782242884
66800.0,0.002348600283995165
66900.0,0.002348600289676026
67000.0,0.0023486002952682757
67100.0,0.0023486003007732984
67200.0,0.0023486003061924513
67300.0,0.0023486003115270756
67400.0,0.00234860031677849
67500.0,0.002348600321947992
67600.0,0.002348600327036859
67700.0,0.0023486003320463494
67800.0,0.0023486003369777007
67900.0,0.002348600341832132
68000.0,0.0023486003466108435
