M.H_b.CO2aq Time [a],M.H_b.CO2aq CO2aq [mol/kg]
0.0,1.5733019491890696e-05
0.08333333333333333,1.5733019638088986e-05
0.16666666666666666,1.573302027672085e-05
0.25,1.5733021606724202e-05
0.3333333333333333,1.5733023765007726e-05
0.41666666666666663,1.573302703296486e-05
0.5,1.5733031261685003e-05
0.5833333333333333,1.5733036689988978e-05
0.6666666666666666,1.5733043498132247e-05
0.75,1.5733051807716693e-05
0.8333333333333333,1.573306170577325e-05
0.9166666666666666,1.5733073257517477e-05
1.0,1.5733086511343106e-05
1.0833333333333333,1.5733101501046337e-05
1.1666666666666665,1.5733118247356537e-05
1.25,1.5733136759316606e-05
1.3333333333333333,1.5733157035588865e-05
1.4166666666666665,1.5733179065677362e-05
1.5,1.5733202831059142e-05
1.5833333333333333,1.5733228306225104e-05
1.6666666666666665,1.573325546054106e-05
1.75,1.57332842558575e-05
1.8333333333333333,1.5733314655939637e-05
1.9166666666666665,1.5733346615152213e-05
2.0,1.5733380083938376e-05
2.083333333333333,1.5733415011168867e-05
2.1666666666666665,1.573345134463595e-05
2.25,1.573348903103581e-05
2.333333333333333,1.5733528016136548e-05
2.4166666666666665,1.5733568245138403e-05
2.5,1.5733609663062035e-05
2.583333333333333,1.5733652215080168e-05
2.6666666666666665,1.573369584678862e-05
2.75,1.573374050443564e-05
2.833333333333333,1.5733786135121796e-05
2.9166666666666665,1.5733832686974128e-05
3.0,1.5733880109295443e-05
3.083333333333333,1.573392835268992e-05
3.1666666666666665,1.5733977369167007e-05
3.25,1.573402711222566e-05
3.333333333333333,1.5734077536921005e-05
3.4166666666666665,1.5734128599915068e-05
3.5,1.5734180259513258e-05
3.583333333333333,1.5734232475688028e-05
3.6666666666666665,1.5734285210091078e-05
3.75,1.5734338426055438e-05
3.833333333333333,1.57343920885886e-05
3.9166666666666665,1.5734446164357733e-05
4.0,1.573450062166804e-05
4.083333333333333,1.5734555430435154e-05
4.166666666666666,1.5734610562152458e-05
4.25,1.5734665989854e-05
4.333333333333333,1.573472168746291e-05
4.416666666666666,1.573477763204144e-05
4.5,1.573483379843298e-05
4.583333333333333,1.5734890179030676e-05
4.666666666666666,1.573494673503274e-05
4.75,1.5735003487366057e-05
4.833333333333333,1.5735060383503676e-05
4.916666666666666,1.5735117402415556e-05
5.0,1.573517452894271e-05
5.083333333333333,1.573523174968742e-05
5.166666666666666,1.573528905231973e-05
5.25,1.573534642542709e-05
5.333333333333333,1.573540385845115e-05
5.416666666666666,1.5735461341639378e-05
5.5,1.5735518866000188e-05
5.583333333333333,1.573557642325974e-05
5.666666666666666,1.5735634005820223e-05
5.75,1.5735691606719605e-05
5.833333333333333,1.5735749219592905e-05
5.916666666666666,1.5735806838634964e-05
6.0,1.5735864458564706e-05
6.083333333333333,1.5735922074590995e-05
6.166666666666666,1.5735979682379963e-05
6.25,1.5736037278023834e-05
6.333333333333333,1.573609485801126e-05
6.416666666666666,1.573615241919913e-05
6.5,1.5736209958785766e-05
6.583333333333333,1.5736267474285555e-05
6.666666666666666,1.5736324963504937e-05
6.75,1.573638242451971e-05
6.833333333333333,1.5736439855653636e-05
6.916666666666666,1.5736497255458248e-05
7.0,1.5736554622693915e-05
7.083333333333333,1.5736611956312016e-05
7.166666666666666,1.5736669255438242e-05
7.25,1.573672651935694e-05
7.333333333333333,1.5736783747496505e-05
7.416666666666666,1.5736840939415745e-05
7.5,1.573689809479115e-05
7.583333333333333,1.573695521340503e-05
7.666666666666666,1.573701229513455e-05
7.75,1.573706933994152e-05
7.833333333333333,1.573712634786294e-05
7.916666666666666,1.573718331900229e-05
8.0,1.5737240253521483e-05
8.083333333333332,1.573729715163342e-05
8.166666666666666,1.5737354013595194e-05
8.25,1.5737410839701847e-05
8.333333333333332,1.5737467630280648e-05
8.416666666666666,1.5737524385685877e-05
8.5,1.5737581106294054e-05
8.583333333333332,1.573763779249966e-05
8.666666666666666,1.5737694444711166e-05
8.75,1.5737751063347574e-05
8.833333333333332,1.5737807648835186e-05
8.916666666666666,1.573786420160477e-05
9.0,1.573792072208903e-05
9.083333333333332,1.573797721072031e-05
9.166666666666666,1.5738033667928628e-05
9.25,1.5738090094139882e-05
9.333333333333332,1.5738146489774332e-05
9.416666666666666,1.5738202855245247e-05
9.5,1.5738259190957777e-05
9.583333333333332,1.573831549730794e-05
9.666666666666666,1.5738371774681828e-05
9.75,1.5738428023454913e-05
9.833333333333332,1.5738484243991498e-05
9.916666666666666,1.5738540436644283e-05
10.0,1.573859660175404e-05
10.083333333333332,1.573865273964937e-05
10.166666666666666,1.5738708850646563e-05
10.25,1.573876493504953e-05
10.333333333333332,1.5738820993149784e-05
10.416666666666666,1.5738877025226525e-05
10.5,1.5738933031546725e-05
10.583333333333332,1.5738989012365288e-05
10.666666666666666,1.573904496792526e-05
10.75,1.5739100898458066e-05
10.833333333333332,1.5739156804183735e-05
10.916666666666666,1.573921268531124e-05
11.0,1.573926854203876e-05
11.083333333333332,1.573932437455403e-05
11.166666666666666,1.573938018303467e-05
11.25,1.573943596764855e-05
11.333333333333332,1.5739491728554115e-05
11.416666666666666,1.5739547465900768e-05
11.5,1.5739603179829237e-05
11.583333333333332,1.5739658870471927e-05
11.666666666666666,1.5739714537953274e-05
11.75,1.573977018239013e-05
11.833333333333332,1.5739825803892102e-05
11.916666666666666,1.573988140256189e-05
12.0,1.5739936978495673e-05
12.083333333333332,1.57399925317834e-05
12.166666666666666,1.5740048062509134e-05
12.25,1.574010357075137e-05
12.333333333333332,1.5740159056583342e-05
12.416666666666666,1.5740214520073348e-05
12.5,1.5740269961284987e-05
12.583333333333332,1.5740325380277472e-05
12.666666666666666,1.574038077710591e-05
12.75,1.574043615182152e-05
12.833333333333332,1.5740491504471907e-05
12.916666666666666,1.5740546835101304e-05
13.0,1.5740602143750773e-05
13.083333333333332,1.5740657430458443e-05
13.166666666666666,1.5740712695259693e-05
13.25,1.5740767938187363e-05
13.333333333333332,1.5740823159271945e-05
13.416666666666666,1.5740878358541732e-05
13.5,1.5740933536023005e-05
13.583333333333332,1.5740988691740188e-05
13.666666666666666,1.5741043825715976e-05
13.75,1.5741098937971508e-05
13.833333333333332,1.5741154028526472e-05
13.916666666666666,1.574120909739923e-05
14.0,1.574126414460694e-05
14.083333333333332,1.574131917016567e-05
14.166666666666666,1.5741374174090475e-05
14.25,1.5741429156395517e-05
14.333333333333332,1.5741484117094154e-05
14.416666666666666,1.5741539056198988e-05
14.5,1.5741593973721977e-05
14.583333333333332,1.574164886967449e-05
14.666666666666666,1.574170374406738e-05
14.75,1.5741758596911027e-05
14.833333333333332,1.5741813428215417e-05
14.916666666666666,1.5741868237990178e-05
15.0,1.574192302624463e-05
15.083333333333332,1.5741977792987827e-05
15.166666666666666,1.5742032538228604e-05
15.25,1.574208726197561e-05
15.333333333333332,1.5742141964237318e-05
15.416666666666666,1.574219664502211e-05
15.5,1.5742251304338246e-05
15.583333333333332,1.5742305942193914e-05
15.666666666666666,1.5742360558597257e-05
15.75,1.574241515355638e-05
15.833333333333332,1.5742469727079376e-05
15.916666666666666,1.5742524279174344e-05
16.0,1.574257880984939e-05
16.083333333333332,1.574263331911265e-05
16.166666666666664,1.5742687808373397e-05
16.25,1.5742742275199032e-05
16.333333333333332,1.5742796724765195e-05
16.416666666666664,1.5742851153357115e-05
16.5,1.574290556148866e-05
16.583333333333332,1.574295994337014e-05
16.666666666666664,1.574301430313338e-05
16.75,1.5743068642829493e-05
16.833333333333332,1.574312296012938e-05
16.916666666666664,1.57431772602135e-05
17.0,1.5743231539381013e-05
17.083333333333332,1.574328579814518e-05
17.166666666666664,1.574334003073314e-05
17.25,1.5743394241265862e-05
17.333333333333332,1.5743448431789296e-05
17.416666666666664,1.574350259998176e-05
17.5,1.5743556751009097e-05
17.583333333333332,1.5743610881181935e-05
17.666666666666664,1.5743664991012666e-05
17.75,1.574371907474664e-05
17.833333333333332,1.5743773136493155e-05
17.916666666666664,1.5743827178292464e-05
18.0,1.574388119783072e-05
18.083333333333332,1.5743935200257978e-05
18.166666666666664,1.5743989181897005e-05
18.25,1.5744043143259073e-05
18.333333333333332,1.5744097078608685e-05
18.416666666666664,1.5744150992042505e-05
18.5,1.574420488559461e-05
18.583333333333332,1.574425875695922e-05
18.666666666666664,1.5744312611269655e-05
18.75,1.574436644486126e-05
18.833333333333332,1.574442025824399e-05
18.916666666666664,1.5744474045702127e-05
19.0,1.5744527811318964e-05
19.083333333333332,1.574458155712199e-05
19.166666666666664,1.5744635280813622e-05
19.25,1.574468898750977e-05
19.333333333333332,1.5744742673558648e-05
19.416666666666664,1.5744796339468702e-05
19.5,1.5744849979544373e-05
19.583333333333332,1.5744903597855052e-05
19.666666666666664,1.5744957196421348e-05
19.75,1.574501077295394e-05
19.833333333333332,1.57450643325509e-05
19.916666666666664,1.574511787157345e-05
20.0,1.5745171390528406e-05
20.083333333333332,1.5745224883740562e-05
20.166666666666664,1.5745278355265083e-05
20.25,1.5745331807115518e-05
20.333333333333332,1.5745385237010826e-05
20.416666666666664,1.5745438650030964e-05
20.5,1.5745492042550228e-05
20.583333333333332,1.574554541507371e-05
20.666666666666664,1.5745598761946653e-05
20.75,1.5745652087209797e-05
20.833333333333332,1.5745705392869532e-05
20.916666666666664,1.5745758676653072e-05
21.0,1.5745811943622145e-05
21.083333333333332,1.5745865190164133e-05
21.166666666666664,1.5745918416782366e-05
21.25,1.5745971617842514e-05
21.333333333333332,1.574602479737081e-05
21.416666666666664,1.5746077957366445e-05
21.5,1.5746131095564852e-05
21.583333333333332,1.5746184217009507e-05
21.666666666666664,1.5746237318100855e-05
21.75,1.574629039934043e-05
21.833333333333332,1.574634345511427e-05
21.916666666666664,1.5746396489434093e-05
22.0,1.574644950429187e-05
22.083333333333332,1.5746502497431246e-05
22.166666666666664,1.5746555473877447e-05
22.25,1.5746608430043938e-05
22.333333333333332,1.5746661366430437e-05
22.416666666666664,1.5746714277443305e-05
22.5,1.574676716707975e-05
22.583333333333332,1.5746820037324542e-05
22.666666666666664,1.5746872885929493e-05
22.75,1.574692571790164e-05
22.833333333333332,1.574697852966741e-05
22.916666666666664,1.574703132172471e-05
23.0,1.5747084088500147e-05
23.083333333333332,1.574713683397646e-05
23.166666666666664,1.5747189560131247e-05
23.25,1.5747242264724426e-05
23.333333333333332,1.5747294952744937e-05
23.416666666666664,1.5747347620632112e-05
23.5,1.574740026888206e-05
23.583333333333332,1.574745289194152e-05
23.666666666666664,1.574750549377884e-05
23.75,1.5747558076364465e-05
23.833333333333332,1.5747610637466393e-05
23.916666666666664,1.5747663182055533e-05
24.0,1.5747715706584072e-05
24.083333333333332,1.5747768211546317e-05
24.166666666666664,1.574782069140908e-05
24.25,1.5747873150126366e-05
24.333333333333332,1.5747925589661492e-05
24.416666666666664,1.574797800779053e-05
24.5,1.57480304094664e-05
24.583333333333332,1.57480827911541e-05
24.666666666666664,1.5748135153346145e-05
24.75,1.5748187490529337e-05
24.833333333333332,1.5748239806643394e-05
24.916666666666664,1.5748292103644545e-05
25.0,1.5748344379316875e-05
25.083333333333332,1.5748396638595434e-05
25.166666666666664,1.574844887795796e-05
25.25,1.57485010978952e-05
25.333333333333332,1.574855329291383e-05
25.416666666666664,1.5748605466939364e-05
25.5,1.5748657621920965e-05
25.583333333333332,1.5748709755650725e-05
25.666666666666664,1.5748761873045865e-05
25.75,1.5748813970596832e-05
25.833333333333332,1.5748866048792582e-05
25.916666666666664,1.5748918102159634e-05
26.0,1.5748970134609337e-05
26.083333333333332,1.574902214808382e-05
26.166666666666664,1.5749074140383128e-05
26.25,1.5749126116406734e-05
26.333333333333332,1.574917807265775e-05
26.416666666666664,1.5749230009623365e-05
26.5,1.5749281921849846e-05
26.583333333333332,1.5749333813234424e-05
26.666666666666664,1.5749385685712227e-05
26.75,1.574943753709124e-05
26.833333333333332,1.5749489372253256e-05
26.916666666666664,1.574954118771398e-05
27.0,1.5749592983958853e-05
27.083333333333332,1.5749644755553812e-05
27.166666666666664,1.5749696506382037e-05
27.25,1.5749748238371687e-05
27.333333333333332,1.574979994933864e-05
27.416666666666664,1.574985164414708e-05
27.5,1.574990331932527e-05
27.583333333333332,1.5749954975356905e-05
27.666666666666664,1.5750006606827525e-05
27.75,1.5750058217606314e-05
27.833333333333332,1.5750109809614452e-05
27.916666666666664,1.575016138067571e-05
28.0,1.575021293563672e-05
28.083333333333332,1.5750264471038263e-05
28.166666666666664,1.5750315987362286e-05
28.25,1.5750367479213864e-05
28.333333333333332,1.575041895044822e-05
28.416666666666664,1.5750470402979623e-05
28.5,1.5750521834639688e-05
28.583333333333332,1.5750573250257555e-05
28.666666666666664,1.5750624646386475e-05
28.75,1.5750676023506658e-05
28.833333333333332,1.5750727376242635e-05
28.916666666666664,1.575077870843574e-05
29.0,1.575083002199334e-05
29.083333333333332,1.575088131475485e-05
29.166666666666664,1.5750932591532007e-05
29.25,1.5750983848890483e-05
29.333333333333332,1.575103508730876e-05
29.416666666666664,1.575108630143075e-05
29.5,1.5751137495083938e-05
29.583333333333332,1.5751188670168822e-05
29.666666666666664,1.5751239824532614e-05
29.75,1.575129096296968e-05
29.833333333333332,1.575134208205807e-05
29.916666666666664,1.5751393182274542e-05
30.0,1.5751444258282328e-05
30.083333333333332,1.5751495313895123e-05
30.166666666666664,1.5751546351006563e-05
30.25,1.5751597367471622e-05
30.333333333333332,1.575164836806737e-05
30.416666666666664,1.5751699349384202e-05
30.5,1.5751750311897145e-05
30.583333333333332,1.575180125028869e-05
30.666666666666664,1.5751852168358782e-05
30.75,1.5751903067994217e-05
30.833333333333332,1.575195394705771e-05
30.916666666666664,1.5752004810309107e-05
31.0,1.5752055654351086e-05
31.083333333333332,1.5752106479656968e-05
31.166666666666664,1.5752157280928408e-05
31.25,1.5752208061951664e-05
31.333333333333332,1.5752258824606737e-05
31.416666666666664,1.575230956676404e-05
31.5,1.5752360293166257e-05
31.583333333333332,1.5752411000428296e-05
31.666666666666664,1.575246168902178e-05
31.75,1.5752512353667472e-05
31.833333333333332,1.5752562998137975e-05
31.916666666666664,1.575261362430652e-05
32.0,1.5752664230051188e-05
32.08333333333333,1.575271482009756e-05
32.166666666666664,1.5752765392308904e-05
32.25,1.575281594551883e-05
32.33333333333333,1.575286647936357e-05
32.416666666666664,1.5752916993783597e-05
32.5,1.5752967488791258e-05
32.58333333333333,1.5753017964404452e-05
32.666666666666664,1.575306842063667e-05
32.75,1.5753118857498676e-05
32.83333333333333,1.5753169275000314e-05
32.916666666666664,1.575321967315125e-05
33.0,1.575327005196118e-05
33.08333333333333,1.575332041143983e-05
33.166666666666664,1.575337075159696e-05
33.25,1.5753421072442342e-05
33.33333333333333,1.575347137398577e-05
33.416666666666664,1.5753521656237046e-05
33.5,1.5753571919205987e-05
33.58333333333333,1.5753622162902414e-05
33.666666666666664,1.575367238733615e-05
33.75,1.5753722592517048e-05
33.83333333333333,1.5753772778454952e-05
33.916666666666664,1.5753822945159717e-05
34.0,1.5753873092641208e-05
34.08333333333333,1.575392322090929e-05
34.166666666666664,1.575397332997383e-05
34.25,1.5754023419844692e-05
34.33333333333333,1.5754073490531757e-05
34.416666666666664,1.5754123542044892e-05
34.5,1.575417357439398e-05
34.58333333333333,1.575422358758889e-05
34.666666666666664,1.575427358163949e-05
34.75,1.5754323556555645e-05
34.83333333333333,1.575437351234724e-05
34.916666666666664,1.575442344902414e-05
35.0,1.5754473366596214e-05
35.08333333333333,1.5754523265073322e-05
35.166666666666664,1.5754573144465324e-05
35.25,1.5754623004782083e-05
35.33333333333333,1.5754672846033442e-05
35.416666666666664,1.575472266822926e-05
35.5,1.575477247137938e-05
35.58333333333333,1.575482225549364e-05
35.666666666666664,1.575487202058187e-05
35.75,1.575492176665391e-05
35.83333333333333,1.5754971493719586e-05
35.916666666666664,1.575502120178872e-05
36.0,1.5755070890871136e-05
36.08333333333333,1.575512056097664e-05
36.166666666666664,1.5755170212115027e-05
36.25,1.5755219844296106e-05
36.33333333333333,1.5755269457529668e-05
36.416666666666664,1.5755319051825504e-05
36.5,1.5755368627193407e-05
36.58333333333333,1.5755418183643147e-05
36.666666666666664,1.5755467721184497e-05
36.75,1.5755517239827233e-05
36.83333333333333,1.575556673958111e-05
36.916666666666664,1.575561622045589e-05
37.0,1.5755665682461313e-05
37.08333333333333,1.5755715125607136e-05
37.166666666666664,1.575576454990309e-05
37.25,1.575581395535891e-05
37.33333333333333,1.5755863341984323e-05
37.416666666666664,1.575591270978905e-05
37.5,1.575596205878189e-05
37.58333333333333,1.575601138896036e-05
37.666666666666664,1.57560607003079e-05
37.75,1.5756109992799428e-05
37.83333333333333,1.575615926640919e-05
37.916666666666664,1.575620852097506e-05
38.0,1.575625775053966e-05
38.08333333333333,1.5756306961439214e-05
38.166666666666664,1.5756356153508178e-05
38.25,1.5756405326743604e-05
38.33333333333333,1.5756454481167923e-05
38.416666666666664,1.5756503616807033e-05
38.5,1.5756552733686606e-05
38.58333333333333,1.5756601831831345e-05
38.666666666666664,1.575665091126479e-05
38.75,1.5756699972009293e-05
38.83333333333333,1.5756749014085984e-05
38.916666666666664,1.5756798037514817e-05
39.0,1.5756847042314642e-05
39.08333333333333,1.5756896028503232e-05
39.166666666666664,1.5756944996097385e-05
39.25,1.5756993945112972e-05
39.33333333333333,1.5757042875565025e-05
39.416666666666664,1.5757091787467775e-05
39.5,1.5757140680834754e-05
39.58333333333333,1.5757189555678833e-05
39.666666666666664,1.5757238412012285e-05
39.75,1.5757287249846832e-05
39.83333333333333,1.575733606919372e-05
39.916666666666664,1.5757384870063755e-05
40.0,1.5757433652467348e-05
40.08333333333333,1.5757482416414557e-05
40.166666666666664,1.5757531161915113e-05
40.25,1.575757988897848e-05
40.33333333333333,1.5757628597613863e-05
40.416666666666664,1.5757677287830263e-05
40.5,1.5757725959636492e-05
40.58333333333333,1.5757774613041175e-05
40.666666666666664,1.5757823248052833e-05
40.75,1.5757871864679843e-05
40.83333333333333,1.5757920462930494e-05
40.916666666666664,1.5757969042812988e-05
41.0,1.5758017604335453e-05
41.08333333333333,1.5758066147505968e-05
41.166666666666664,1.5758114672332574e-05
41.25,1.5758163178823302e-05
41.33333333333333,1.5758211666986128e-05
41.416666666666664,1.5758260136829047e-05
41.5,1.5758308588360046e-05
41.58333333333333,1.575835702158712e-05
41.666666666666664,1.575840543651827e-05
41.75,1.575845383316152e-05
41.83333333333333,1.575850221152491e-05
41.916666666666664,1.5758550571616517e-05
42.0,1.5758598913444447e-05
42.08333333333333,1.5758647237016824e-05
42.166666666666664,1.575869554234182e-05
42.25,1.5758743829427638e-05
42.33333333333333,1.5758792098282514e-05
42.416666666666664,1.5758840348914733e-05
42.5,1.5758888581332613e-05
42.58333333333333,1.5758936795544512e-05
42.666666666666664,1.5758984991558824e-05
42.75,1.5759033169383997e-05
42.83333333333333,1.5759081329028503e-05
42.916666666666664,1.5759129470500858e-05
43.0,1.5759177593809615e-05
43.08333333333333,1.575922569896337e-05
43.166666666666664,1.5759273785970745e-05
43.25,1.5759321854840407e-05
43.33333333333333,1.575936990558105e-05
43.416666666666664,1.5759417938201407e-05
43.5,1.575946595271023e-05
43.58333333333333,1.5759513949116317e-05
43.666666666666664,1.5759561927428484e-05
43.75,1.5759609887655586e-05
43.83333333333333,1.5759657829806486e-05
43.916666666666664,1.575970575389009e-05
44.0,1.5759753659915318e-05
44.08333333333333,1.575980154789112e-05
44.166666666666664,1.5759849417826457e-05
44.25,1.5759897269730317e-05
44.33333333333333,1.57599451036117e-05
44.416666666666664,1.575999291947963e-05
44.5,1.576004071734314e-05
44.58333333333333,1.5760088497211287e-05
44.666666666666664,1.576013625909314e-05
44.75,1.5760184002997766e-05
44.83333333333333,1.5760231728934267e-05
44.916666666666664,1.576027943691174e-05
45.0,1.5760327126939284e-05
