M.H_b.CO3 Time [a],M.H_b.CO3 CO3 [mol/kg]
0.0,0.00013770356161860815
10.0,0.00013696218992240682
20.0,0.00013711627042123202
30.0,0.00013720597389059615
40.0,0.0001372801041616158
50.0,0.00013735287264321527
60.0,0.00013742774334874107
70.0,0.00013750474806136694
80.0,0.0001375828966933306
90.0,0.0001376609637680436
100.0,0.0001377378904162021
110.0,0.00013781296194303124
120.0,0.00013788570795147807
130.0,0.00013795584663161718
140.0,0.00013802318233555505
150.0,0.0001380876022293752
160.0,0.00013814906938407155
170.0,0.00013820761261264675
180.0,0.00013826328836256713
190.0,0.00013831617728572325
200.0,0.00013836637821924334
210.0,0.00013841400077165312
220.0,0.00013845916125550158
230.0,0.00013850197421878273
240.0,0.00013854255402905144
250.0,0.0001385810146888213
260.0,0.00013861746060992672
270.0,0.00013865199380576058
280.0,0.00013868472218339187
290.0,0.00013871575560734628
300.0,0.00013874519320657543
310.0,0.00013877312257632433
320.0,0.00013879962606882615
330.0,0.00013882478360854403
340.0,0.00013884867231078783
350.0,0.0001388713658148207
360.0,0.00013889293331242414
370.0,0.00013891344044435373
380.0,0.00013893294883300555
390.0,0.0001389515136814754
400.0,0.00013896918082346955
410.0,0.0001389859989125334
420.0,0.00013900202060746134
430.0,0.0001390172969972181
440.0,0.00013903187378889862
450.0,0.0001390457923320332
460.0,0.0001390590910369998
470.0,0.00013907180609736388
480.0,0.00013908397173032015
490.0,0.0001390956203192093
500.0,0.0001391067823931158
510.0,0.00013911748661903493
520.0,0.00013912775997910253
530.0,0.00013913762766719316
540.0,0.0001391471135959581
550.0,0.00013915623706451353
560.0,0.00013916501029545144
570.0,0.00013917344917325065
580.0,0.00013918157685940627
590.0,0.00013918941641570252
600.0,0.00013919698639695225
610.0,0.00013920429964775748
620.0,0.00013921136293002607
630.0,0.00013921818984670046
640.0,0.00013922479585598994
650.0,0.00013923119573554764
660.0,0.0001392374026021549
670.0,0.00013924342757683805
680.0,0.00013924928246108282
690.0,0.00013925497633820105
700.0,0.00013926051935879815
710.0,0.00013926591736047297
720.0,0.0001392711659309276
730.0,0.0001392762654324577
740.0,0.00013928122503117558
750.0,0.0001392860577762191
760.0,0.0001392907733785946
770.0,0.00013929538093442802
780.0,0.0001392998876598825
790.0,0.00013930429973056055
800.0,0.00013930861930365425
810.0,0.00013931284419032978
820.0,0.0001393169773351226
830.0,0.00013932102719120478
840.0,0.00013932500160428353
850.0,0.00013932890575597804
860.0,0.0001393327439825763
870.0,0.00013933652024135292
880.0,0.00013934023800237695
890.0,0.00013934390095316323
900.0,0.00013934750838524593
910.0,0.00013935105588729632
920.0,0.00013935454413119294
930.0,0.000139357974188567
940.0,0.00013936134516210073
950.0,0.00013936466065949006
960.0,0.00013936792662270911
970.0,0.00013937114807656423
980.0,0.00013937432880940302
990.0,0.00013937746648474178
1000.0,0.00013938055720095458
1010.0,0.0001393836029985792
1020.0,0.00013938660897808332
1030.0,0.00013938957929096968
1040.0,0.00013939251740146435
1050.0,0.00013939542582062692
1060.0,0.00013939830616337758
1070.0,0.0001394011602338395
1080.0,0.00013940398939628966
1090.0,0.00013940679151395257
1100.0,0.00013940955997452124
1110.0,0.00013941229365166193
1120.0,0.00013941499772644728
1130.0,0.0001394176768158444
1140.0,0.00013942033390985085
1150.0,0.0001394229703941521
1160.0,0.00013942558747829882
1170.0,0.00013942818626229637
1180.0,0.0001394307677059478
1190.0,0.00013943333282089138
1200.0,0.0001394358787355444
1210.0,0.00013943839852116182
1220.0,0.00013944089057247975
1230.0,0.00013944335839817762
1240.0,0.0001394457912096369
1250.0,0.0001394481910337031
1260.0,0.00013945056749072976
1270.0,0.00013945292535466562
1280.0,0.00013945526371579445
1290.0,0.0001394575884608975
1300.0,0.0001394598954971968
1310.0,0.0001394621788447102
1320.0,0.00013946443200452778
1330.0,0.00013946666340811534
1340.0,0.0001394688780669664
1350.0,0.000139471075324704
1360.0,0.00013947326044017887
1370.0,0.00013947543240467206
1380.0,0.000139477591195399
1390.0,0.00013947973744685716
1400.0,0.00013948187192231958
1410.0,0.00013948399531815063
1420.0,0.000139486107073725
1430.0,0.00013948819749198265
1440.0,0.00013949026748783332
1450.0,0.000139492315692735
1460.0,0.0001394943486994791
1470.0,0.00013949636979449046
1480.0,0.00013949837828313073
1490.0,0.00013950037784819528
1500.0,0.0001395023675984174
1510.0,0.0001395043474265615
1520.0,0.00013950631776025034
1530.0,0.0001395082791379226
1540.0,0.00013951023205146365
1550.0,0.00013951217689548196
1560.0,0.00013951411382154115
1570.0,0.0001395160430900317
1580.0,0.00013951796506048319
1590.0,0.00013951988007789481
1600.0,0.0001395217884420248
1610.0,0.00013952369041479582
1620.0,0.00013952558379974514
1630.0,0.00013952746167620838
1640.0,0.0001395293189262356
1650.0,0.00013953116180542908
1660.0,0.00013953299401145075
1670.0,0.00013953481540350822
1680.0,0.00013953662939154761
1690.0,0.00013953843553668073
1700.0,0.0001395402336870711
1710.0,0.0001395420241348658
1720.0,0.0001395438073550578
1730.0,0.0001395455837946761
1740.0,0.00013954735382557847
1750.0,0.00013954911775777615
1760.0,0.00013955087469052062
1770.0,0.00013955261654939746
1780.0,0.0001395543395179424
1790.0,0.00013955604852583937
1800.0,0.00013955774342593087
1810.0,0.0001395594284360585
1820.0,0.00013956110561962878
1830.0,0.00013956277440927385
1840.0,0.0001395644370073148
1850.0,0.00013956609286258206
1860.0,0.00013956774198462557
1870.0,0.0001395693846683145
1880.0,0.00013957102125382057
1890.0,0.00013957265204790528
1900.0,0.00013957427731411636
1910.0,0.00013957589492738658
1920.0,0.00013957749785095615
1930.0,0.00013957908115420068
1940.0,0.0001395806509232171
1950.0,0.0001395822107448582
1960.0,0.00013958376057941787
1970.0,0.00013958530362420565
1980.0,0.00013958683954634927
1990.0,0.0001395883684109558
2000.0,0.00013958988913689578
2010.0,0.00013959139167843028
2020.0,0.00013959287645779622
2030.0,0.0001395943428506951
2040.0,0.00013959579697040773
2050.0,0.00013959724173630286
2060.0,0.00013959867680438372
2070.0,0.00013960010513273187
2080.0,0.0001396015262889393
2090.0,0.00013960294017974751
2100.0,0.00013960434605363734
2110.0,0.0001396057457960272
2120.0,0.0001396071397877636
2130.0,0.00013960852883335422
2140.0,0.00013960991266850307
2150.0,0.00013961129216303646
2160.0,0.00013961266694465896
2170.0,0.00013961403700477162
2180.0,0.00013961540247883872
2190.0,0.00013961676353010103
2200.0,0.00013961812031405155
2210.0,0.0001396194729732259
2220.0,0.00013962082163155505
2230.0,0.00013962216642077852
2240.0,0.00013962350744252294
2250.0,0.00013962484481069745
2260.0,0.0001396261786347839
2270.0,0.00013962750900644853
2280.0,0.0001396288363683265
2290.0,0.00013963016067854723
2300.0,0.00013963148119857437
2310.0,0.00013963279854477072
2320.0,0.00013963411291577758
2330.0,0.00013963542473615704
2340.0,0.00013963673350437698
2350.0,0.00013963803997746227
2360.0,0.0001396393438504908
2370.0,0.00013964064502287413
2380.0,0.00013964194350034225
2390.0,0.00013964323932039825
2400.0,0.00013964453252452214
2410.0,0.00013964582315182893
2420.0,0.00013964711123874444
2430.0,0.0001396483968195126
2440.0,0.0001396496799265243
2450.0,0.00013965096058676284
2460.0,0.00013965223895628912
2470.0,0.0001396535152935608
2480.0,0.00013965478910992325
2490.0,0.00013965606038373582
2500.0,0.0001396573294547586
2510.0,0.00013965859652299896
2520.0,0.00013965986126371943
2530.0,0.0001396611242441624
2540.0,0.00013966238521959443
2550.0,0.00013966364404336968
2560.0,0.0001396649004689951
2570.0,0.00013966615421804728
2580.0,0.00013966740566337326
2590.0,0.00013966865432701674
2600.0,0.00013966990069080843
2610.0,0.0001396711450479064
2620.0,0.0001396723871022317
2630.0,0.00013967362742506613
2640.0,0.00013967486578911605
2650.0,0.0001396761022688857
2660.0,0.00013967733722926353
2670.0,0.0001396785701653229
2680.0,0.00013967980139071703
2690.0,0.00013968103080351356
2700.0,0.00013968225859650827
2710.0,0.00013968348444688727
2720.0,0.00013968470873811954
2730.0,0.00013968593124199578
2740.0,0.00013968715177386146
2750.0,0.00013968837011774362
2760.0,0.00013968958597760492
2770.0,0.0001396907996714883
2780.0,0.00013969201101705239
2790.0,0.00013969322030146615
2800.0,0.00013969442783182725
2810.0,0.00013969563329819178
2820.0,0.0001396968371334874
2830.0,0.00013969803911542816
2840.0,0.00013969923916713544
2850.0,0.00013970043773761624
2860.0,0.00013970163480222605
2870.0,0.000139702830084992
2880.0,0.00013970402374363034
2890.0,0.00013970521570945491
2900.0,0.00013970640602777536
2910.0,0.00013970759480618812
2920.0,0.00013970878203218413
2930.0,0.00013970996754847297
2940.0,0.000139711151295333
2950.0,0.00013971233306996463
2960.0,0.00013971351264278136
2970.0,0.00013971468975854413
2980.0,0.00013971586476419499
2990.0,0.0001397170378131945
3000.0,0.00013971820903538182
3010.0,0.00013971937857890985
3020.0,0.00013972054645917172
3030.0,0.00013972171252772176
3040.0,0.00013972287673900155
3050.0,0.0001397240393364612
3060.0,0.00013972520065950436
3070.0,0.00013972636025402256
3080.0,0.00013972751834956563
3090.0,0.0001397286748464032
3100.0,0.00013972982991012698
3110.0,0.00013973098321182044
3120.0,0.00013973213513603398
3130.0,0.00013973328546868787
3140.0,0.00013973443411812117
3150.0,0.0001397355809804135
3160.0,0.00013973672558708855
3170.0,0.00013973786817515058
3180.0,0.00013973900849927124
3190.0,0.00013974014688852038
3200.0,0.000139741283646883
3210.0,0.00013974241845340592
3220.0,0.00013974355176537133
3230.0,0.00013974468337192336
3240.0,0.00013974581319364638
3250.0,0.00013974694121527336
3260.0,0.0001397480675917678
3270.0,0.00013974919224746986
3280.0,0.0001397503150320342
3290.0,0.0001397514361841058
3300.0,0.0001397525557185984
3310.0,0.0001397536735247434
3320.0,0.00013975478996300098
3330.0,0.00013975590485398762
3340.0,0.00013975701808495005
3350.0,0.00013975812961575045
3360.0,0.00013975923943664663
3370.0,0.00013976034754623184
3380.0,0.0001397614539445451
3390.0,0.00013976255863178616
3400.0,0.0001397636616082984
3410.0,0.00013976476287464316
3420.0,0.0001397658624316119
3430.0,0.00013976696028019753
3440.0,0.0001397680564215623
3450.0,0.00013976915085700967
3460.0,0.00013977024358014417
3470.0,0.0001397713343725587
3480.0,0.00013977242308152901
3490.0,0.00013977350985321097
3500.0,0.00013977459427139718
3510.0,0.00013977567679270396
3520.0,0.00013977675756292028
3530.0,0.00013977783650810603
3540.0,0.00013977891402527437
3550.0,0.00013977998994246302
3560.0,0.00013978106415586013
3570.0,0.0001397821366357689
3580.0,0.00013978320738239634
3590.0,0.00013978427696775475
3600.0,0.0001397853453298129
3610.0,0.00013978641209207615
3620.0,0.0001397874774185055
3630.0,0.00013978854125283306
3640.0,0.0001397896035802918
3650.0,0.0001397906646350673
3660.0,0.00013979172429132532
3670.0,0.00013979278242906465
3680.0,0.00013979383900022683
3690.0,0.00013979489398881976
3700.0,0.00013979594715938615
3710.0,0.00013979699794389752
3720.0,0.00013979804680741437
3730.0,0.00013979909388462
3740.0,0.00013980013924350798
3750.0,0.00013980118318318823
3760.0,0.0001398022255948138
3770.0,0.00013980326637084677
3780.0,0.0001398043054796404
3790.0,0.0001398053429210637
3800.0,0.000139806378702341
3810.0,0.00013980741285895743
3820.0,0.00013980844555369076
3830.0,0.00013980947656178931
3840.0,0.00013981050601677184
3850.0,0.0001398115339568211
3860.0,0.00013981256050776833
3870.0,0.00013981358540574907
3880.0,0.0001398146090462036
3890.0,0.00013981563124180373
3900.0,0.0001398166519009298
3910.0,0.00013981767099518653
3920.0,0.0001398186885188394
3930.0,0.00013981970447149157
3940.0,0.00013982071885342153
3950.0,0.00013982173166494566
3960.0,0.00013982274290650598
3970.0,0.0001398237525787451
3980.0,0.0001398247606825064
3990.0,0.00013982576721880845
4000.0,0.00013982677218881312
4010.0,0.00013982777559380367
4020.0,0.0001398287774351647
4030.0,0.0001398297777143668
4040.0,0.00013983077643282032
4050.0,0.00013983177373593617
4060.0,0.00013983276935732264
4070.0,0.00013983376360890106
4080.0,0.0001398347564411186
4090.0,0.0001398357479995509
4100.0,0.0001398367380416386
4110.0,0.00013983772685538976
4120.0,0.00013983871426264213
4130.0,0.00013983970019386117
4140.0,0.00013984068462974888
4150.0,0.00013984166756598253
4160.0,0.00013984264900114514
4170.0,0.00013984362893414582
4180.0,0.00013984460736406434
4190.0,0.0001398455842902666
4200.0,0.00013984655971243499
4210.0,0.00013984753363053653
4220.0,0.0001398485060447795
4230.0,0.00013984947695557388
4240.0,0.00013985044636350056
4250.0,0.00013985141426928576
4260.0,0.00013985238067378247
4270.0,0.00013985334557795571
4280.0,0.0001398543089828682
4290.0,0.00013985527092805656
4300.0,0.00013985623156901472
4310.0,0.00013985719072052944
4320.0,0.00013985814844935047
4330.0,0.0001398591048004904
4340.0,0.0001398600598719428
4350.0,0.0001398610134405489
4360.0,0.0001398619658605343
4370.0,0.00013986291696179866
4380.0,0.000139863866656765
4390.0,0.0001398648149164702
4400.0,0.00013986576173366972
4410.0,0.00013986670707650468
4420.0,0.00013986765072246927
4430.0,0.00013986859244884665
4440.0,0.00013986953252970234
4450.0,0.00013987047063560736
4460.0,0.00013987140711449903
4470.0,0.00013987234217133893
4480.0,0.00013987327559784803
4490.0,0.00013987420779523372
4500.0,0.00013987513859559987
4510.0,0.00013987606791851233
4520.0,0.0001398769957448003
4530.0,0.00013987792207674764
4540.0,0.0001398788469202811
4550.0,0.00013987977087981835
4560.0,0.0001398806937884358
4570.0,0.00013988161544979243
4580.0,0.00013988253591194844
4590.0,0.00013988345526141097
4600.0,0.00013988437324123626
4610.0,0.000139885290166172
4620.0,0.00013988620586623376
4630.0,0.00013988712025797653
4640.0,0.0001398880333108189
4650.0,0.00013988894501334035
4660.0,0.00013988985535935968
4670.0,0.00013989076429781708
4680.0,0.00013989167142246326
4690.0,0.00013989257691385414
4700.0,0.0001398934804888533
4710.0,0.0001398943824818334
4720.0,0.00013989528313068303
4730.0,0.00013989618219355403
4740.0,0.00013989708006903972
4750.0,0.00013989797659128524
4760.0,0.00013989887168979511
4770.0,0.00013989976535036305
4780.0,0.00013990065757678145
4790.0,0.00013990154837564104
4800.0,0.0001399024377522656
4810.0,0.0001399033259816942
4820.0,0.0001399042136149349
4830.0,0.0001399050999147343
4840.0,0.00013990598510322348
4850.0,0.00013990686911565482
4860.0,0.00013990775192803556
4870.0,0.00013990863372073995
4880.0,0.00013990951438783137
4890.0,0.00013991039382819088
4900.0,0.0001399112719989676
4910.0,0.0001399121488836689
4920.0,0.00013991302447423422
4930.0,0.00013991389876501264
4940.0,0.00013991477154042212
4950.0,0.00013991564267160864
4960.0,0.00013991651184163526
4970.0,0.00013991737945039605
4980.0,0.00013991824559795156
4990.0,0.00013991911033288276
5000.0,0.00013991997389753086
5010.0,0.00013992083620046619
5020.0,0.00013992169715165904
5030.0,0.00013992255672426815
5040.0,0.00013992341491778285
5050.0,0.00013992427173793962
5060.0,0.00013992512719052225
5070.0,0.00013992598128039597
5080.0,0.00013992683403179736
5090.0,0.00013992768620520827
5100.0,0.00013992853728856807
5110.0,0.0001399293873157102
5120.0,0.0001399302362522199
5130.0,0.0001399310841949409
5140.0,0.00013993193091466565
5150.0,0.00013993277665675651
5160.0,0.00013993362126604194
5170.0,0.00013993446467484283
5180.0,0.00013993530685888766
5190.0,0.00013993614780816922
5200.0,0.00013993698751639405
5210.0,0.00013993782597842894
5220.0,0.00013993866292012284
5230.0,0.0001399394982803781
5240.0,0.0001399403318724639
5250.0,0.00013994116396431853
5260.0,0.00013994199481104372
5270.0,0.0001399428241936175
5280.0,0.00013994365244969598
5290.0,0.00013994447942887556
5300.0,0.0001399453050792462
5310.0,0.00013994612939500066
5320.0,0.0001399469523826385
5330.0,0.0001399477740494957
5340.0,0.00013994859440160726
5350.0,0.00013994941344391788
5360.0,0.00013995023118012643
5370.0,0.00013995104771432712
5380.0,0.0001399518631301641
5390.0,0.00013995267720559837
5400.0,0.00013995349015816306
5410.0,0.00013995430192958005
5420.0,0.0001399551126514176
5430.0,0.00013995592209771254
5440.0,0.00013995673054194858
5450.0,0.00013995753783412217
5460.0,0.0001399583439134896
5470.0,0.0001399591487630838
5480.0,0.00013995995237944174
5490.0,0.00013996075476181244
5500.0,0.00013996155590972976
5510.0,0.00013996235582282475
5520.0,0.0001399631545009243
5530.0,0.0001399639519440839
5540.0,0.00013996474815256918
5550.0,0.00013996554312682263
5560.0,0.00013996633686743352
5570.0,0.00013996712937511472
5580.0,0.00013996792065068265
5590.0,0.00013996871069504375
5600.0,0.00013996949950918286
5610.0,0.00013997028709415292
5620.0,0.00013997107345106805
5630.0,0.00013997185858109757
5640.0,0.0001399726424854595
5650.0,0.00013997342516541651
5660.0,0.00013997420662207233
5670.0,0.00013997498697819916
5680.0,0.00013997576613185793
5690.0,0.00013997654422784992
5700.0,0.00013997732124462403
5710.0,0.00013997809714765485
5720.0,0.00013997887191911202
5730.0,0.00013997964569073738
5740.0,0.0001399804182414442
5750.0,0.00013998118984720262
5760.0,0.00013998196036480812
5770.0,0.00013998272973418817
5780.0,0.00013998349793801774
5790.0,0.00013998426497249128
5800.0,0.00013998503083657892
5810.0,0.0001399857955295318
5820.0,0.0001399865590506709
5830.0,0.00013998732139948718
5840.0,0.00013998808257568448
5850.0,0.0001399888425791701
5860.0,0.00013998960141002728
5870.0,0.00013999035906849048
5880.0,0.00013999111555492377
5890.0,0.00013999187086980423
5900.0,0.00013999262501370854
5910.0,0.00013999337798730217
5920.0,0.0001399941297913307
5930.0,0.00013999488042661196
5940.0,0.00013999562989402866
5950.0,0.00013999637819452434
5960.0,0.000139997125329098
5970.0,0.0001399978712987987
5980.0,0.00013999861603327703
5990.0,0.0001399993593265999
6000.0,0.00014000010096225599
6010.0,0.0001400008412250202
6020.0,0.00014000157994576462
6030.0,0.00014000231735611152
6040.0,0.00014000305366294064
6050.0,0.00014000378865014433
6060.0,0.0001400045226326799
6070.0,0.00014000525547071924
6080.0,0.0001400059871126403
6090.0,0.00014000671755110084
6100.0,0.00014000744679157186
6110.0,0.00014000817484102564
6120.0,0.0001400089017055513
6130.0,0.00014000962739037465
6140.0,0.00014001035189957123
6150.0,0.00014001107546453599
6160.0,0.00014001179801782847
6170.0,0.00014001251943248922
6180.0,0.00014001323982569154
6190.0,0.00014001395916425513
6200.0,0.00014001467748510937
6210.0,0.00014001539484964108
6220.0,0.00014001611125963133
6230.0,0.00014001682661950475
6240.0,0.00014001754089434208
6250.0,0.00014001825407493755
6260.0,0.00014001896615931886
6270.0,0.00014001967714688017
6280.0,0.00014002038703723292
6290.0,0.0001400210958301603
6300.0,0.00014002180352566467
6310.0,0.00014002251012396432
6320.0,0.00014002321562546277
6330.0,0.00014002392003071654
6340.0,0.00014002462334040532
6350.0,0.00014002532555531144
6360.0,0.00014002602667630246
6370.0,0.000140026726704319
6380.0,0.00014002742564036346
6390.0,0.00014002812348549217
6400.0,0.000140028820240809
6410.0,0.00014002951590746037
6420.0,0.0001400302104866293
6430.0,0.0001400309039795325
6440.0,0.00014003159638741776
6450.0,0.0001400322877115606
6460.0,0.00014003297795326148
6470.0,0.00014003366711384455
6480.0,0.00014003435519567545
6490.0,0.00014003504245245051
6500.0,0.0001400357288258861
6510.0,0.00014003641413690244
6520.0,0.00014003709850003658
6530.0,0.00014003778190392903
6540.0,0.00014003846430364074
6550.0,0.00014003914589521735
6560.0,0.00014003982655674878
6570.0,0.00014004050624059805
6580.0,0.0001400411846467217
6590.0,0.0001400418619907099
6600.0,0.00014004253832168058
6610.0,0.00014004321361199508
6620.0,0.00014004388807133073
6630.0,0.00014004456159727262
6640.0,0.00014004523412210567
6650.0,0.00014004590562181554
6660.0,0.00014004657609096026
6670.0,0.00014004724552911358
6680.0,0.000140047913936587
6690.0,0.0001400485813136452
6700.0,0.00014004924766052758
6710.0,0.0001400499129775275
6720.0,0.00014005057726502437
6730.0,0.00014005124052348327
6740.0,0.00014005190275344907
