M.H_b.TA Time [a],M.H_b.TA TA [mol/kg]
0.0,0.0023486006481959
0.08333333333333333,0.0023486006481959003
0.16666666666666666,0.0023486006481959008
0.25,0.002348600648195901
0.3333333333333333,0.0023486006481959016
0.41666666666666663,0.002348600648195902
0.5,0.002348600648195902
0.5833333333333333,0.0023486006481959025
0.6666666666666666,0.002348600648195903
0.75,0.0023486006481959034
0.8333333333333333,0.002348600648195904
0.9166666666666666,0.0023486006481959042
1.0,0.0023486006481959047
1.0833333333333333,0.0023486006481959055
1.1666666666666665,0.002348600648195907
1.25,0.002348600648195908
1.3333333333333333,0.0023486006481959094
1.4166666666666665,0.0023486006481959116
1.5,0.0023486006481959138
1.5833333333333333,0.0023486006481959164
1.6666666666666665,0.00234860064819592
1.75,0.002348600648195924
1.8333333333333333,0.002348600648195929
1.9166666666666665,0.0023486006481959346
2.0,0.002348600648195941
2.083333333333333,0.002348600648195949
2.1666666666666665,0.002348600648195958
2.25,0.002348600648195968
2.333333333333333,0.0023486006481959793
2.4166666666666665,0.0023486006481959923
2.5,0.002348600648196007
2.583333333333333,0.0023486006481960235
2.6666666666666665,0.002348600648196042
2.75,0.002348600648196063
2.833333333333333,0.0023486006481960864
2.9166666666666665,0.0023486006481961124
3.0,0.002348600648196141
3.083333333333333,0.0023486006481961727
3.1666666666666665,0.0023486006481962074
3.25,0.0023486006481962455
3.333333333333333,0.0023486006481962876
3.4166666666666665,0.002348600648196333
3.5,0.0023486006481963826
3.583333333333333,0.002348600648196437
3.6666666666666665,0.0023486006481964958
3.75,0.002348600648196559
3.833333333333333,0.0023486006481966276
3.9166666666666665,0.0023486006481967018
4.0,0.002348600648196782
4.083333333333333,0.002348600648196868
4.166666666666666,0.00234860064819696
4.25,0.0023486006481970583
4.333333333333333,0.002348600648197164
4.416666666666666,0.002348600648197277
4.5,0.0023486006481973974
4.583333333333333,0.002348600648197526
4.666666666666666,0.0023486006481976632
4.75,0.002348600648197811
4.833333333333333,0.002348600648197968
4.916666666666666,0.002348600648198135
5.0,0.002348600648198312
5.083333333333333,0.002348600648198499
5.166666666666666,0.0023486006481986967
5.25,0.0023486006481989057
5.333333333333333,0.002348600648199126
5.416666666666666,0.0023486006481993585
5.5,0.002348600648199603
5.583333333333333,0.0023486006481998607
5.666666666666666,0.0023486006482001313
5.75,0.002348600648200415
5.833333333333333,0.0023486006482007133
5.916666666666666,0.002348600648201026
6.0,0.0023486006482013534
6.083333333333333,0.0023486006482016965
6.166666666666666,0.0023486006482020556
6.25,0.0023486006482024307
6.333333333333333,0.002348600648202823
6.416666666666666,0.0023486006482032326
6.5,0.00234860064820366
6.583333333333333,0.0023486006482041056
6.666666666666666,0.00234860064820457
6.75,0.002348600648205053
6.833333333333333,0.0023486006482055567
6.916666666666666,0.00234860064820608
7.0,0.002348600648206625
7.083333333333333,0.0023486006482071903
7.166666666666666,0.0023486006482077784
7.25,0.0023486006482083886
7.333333333333333,0.002348600648209022
7.416666666666666,0.002348600648209679
7.5,0.0023486006482103597
7.583333333333333,0.0023486006482110653
7.666666666666666,0.002348600648211796
7.75,0.002348600648212553
7.833333333333333,0.002348600648213335
7.916666666666666,0.0023486006482141453
8.0,0.0023486006482149823
8.083333333333332,0.002348600648215848
8.166666666666666,0.002348600648216742
8.25,0.0023486006482176655
8.333333333333332,0.0023486006482186187
8.416666666666666,0.0023486006482196027
8.5,0.0023486006482206175
8.583333333333332,0.0023486006482216644
8.666666666666666,0.002348600648222744
8.75,0.0023486006482238563
8.833333333333332,0.002348600648225002
8.916666666666666,0.002348600648226182
9.0,0.0023486006482273973
9.083333333333332,0.0023486006482286476
9.166666666666666,0.0023486006482299347
9.25,0.0023486006482312588
9.333333333333332,0.00234860064823262
9.416666666666666,0.00234860064823402
9.5,0.0023486006482354585
9.583333333333332,0.002348600648236937
9.666666666666666,0.0023486006482384553
9.75,0.002348600648240015
9.833333333333332,0.002348600648241616
9.916666666666666,0.002348600648243259
10.0,0.0023486006482449457
10.083333333333332,0.002348600648246676
10.166666666666666,0.0023486006482484507
10.25,0.0023486006482502705
10.333333333333332,0.0023486006482521357
10.416666666666666,0.002348600648254048
10.5,0.0023486006482560076
10.583333333333332,0.002348600648258015
10.666666666666666,0.0023486006482600717
10.75,0.002348600648262177
10.833333333333332,0.0023486006482643334
10.916666666666666,0.0023486006482665404
11.0,0.0023486006482687995
11.083333333333332,0.002348600648271111
11.166666666666666,0.0023486006482734754
11.25,0.0023486006482758936
11.333333333333332,0.002348600648278367
11.416666666666666,0.002348600648280896
11.5,0.0023486006482834813
11.583333333333332,0.0023486006482861233
11.666666666666666,0.0023486006482888234
11.75,0.0023486006482915825
11.833333333333332,0.002348600648294401
11.916666666666666,0.0023486006482972793
12.0,0.0023486006483002192
12.083333333333332,0.0023486006483032207
12.166666666666666,0.0023486006483062847
12.25,0.0023486006483094124
12.333333333333332,0.002348600648312604
12.416666666666666,0.002348600648315861
12.5,0.0023486006483191832
12.583333333333332,0.002348600648322573
12.666666666666666,0.0023486006483260297
12.75,0.0023486006483295547
12.833333333333332,0.002348600648333149
12.916666666666666,0.0023486006483368132
13.0,0.002348600648340549
13.083333333333332,0.002348600648344356
13.166666666666666,0.002348600648348235
13.25,0.002348600648352188
13.333333333333332,0.0023486006483562152
13.416666666666666,0.0023486006483603174
13.5,0.002348600648364496
13.583333333333332,0.0023486006483687508
13.666666666666666,0.0023486006483730833
13.75,0.0023486006483774942
13.833333333333332,0.002348600648381985
13.916666666666666,0.002348600648386556
14.0,0.0023486006483912085
14.083333333333332,0.0023486006483959426
14.166666666666666,0.0023486006484007595
14.25,0.0023486006484056605
14.333333333333332,0.002348600648410646
14.416666666666666,0.0023486006484157176
14.5,0.0023486006484208753
14.583333333333332,0.0023486006484261203
14.666666666666666,0.0023486006484314532
14.75,0.002348600648436876
14.833333333333332,0.0023486006484423885
14.916666666666666,0.002348600648447992
15.0,0.002348600648453688
15.083333333333332,0.0023486006484594764
15.166666666666666,0.002348600648465359
15.25,0.002348600648471336
15.333333333333332,0.0023486006484774082
15.416666666666666,0.0023486006484835773
15.5,0.002348600648489844
15.583333333333332,0.002348600648496209
15.666666666666666,0.002348600648502673
15.75,0.0023486006485092382
15.833333333333332,0.002348600648515904
15.916666666666666,0.002348600648522672
16.0,0.002348600648529543
16.083333333333332,0.002348600648536518
16.166666666666664,0.0023486006485435914
16.25,0.0023486006485507758
16.333333333333332,0.0023486006485580464
16.416666666666664,0.002348600648565422
16.5,0.002348600648572902
16.583333333333332,0.0023486006485805167
16.666666666666664,0.0023486006485882458
16.75,0.00234860064859608
16.833333333333332,0.002348600648604032
16.916666666666664,0.002348600648612076
17.0,0.0023486006486202323
17.083333333333332,0.0023486006486284987
17.166666666666664,0.0023486006486369082
17.25,0.0023486006486454396
17.333333333333332,0.0023486006486540824
17.416666666666664,0.0023486006486628506
17.5,0.002348600648671716
17.583333333333332,0.0023486006486807
17.666666666666664,0.0023486006486898013
17.75,0.0023486006486990543
17.833333333333332,0.002348600648708436
17.916666666666664,0.002348600648717936
18.0,0.0023486006487275684
18.083333333333332,0.002348600648737304
18.166666666666664,0.002348600648747165
18.25,0.00234860064875715
18.333333333333332,0.0023486006487672957
18.416666666666664,0.0023486006487775774
18.5,0.0023486006487879836
18.583333333333332,0.0023486006487985303
18.666666666666664,0.002348600648809186
18.75,0.0023486006488199736
18.833333333333332,0.0023486006488308924
18.916666666666664,0.0023486006488419803
19.0,0.0023486006488532118
19.083333333333332,0.002348600648864575
19.166666666666664,0.002348600648876086
19.25,0.002348600648887711
19.333333333333332,0.0023486006488994764
19.416666666666664,0.0023486006489113797
19.5,0.0023486006489234607
19.583333333333332,0.0023486006489356935
19.666666666666664,0.0023486006489480643
19.75,0.0023486006489605907
19.833333333333332,0.0023486006489732373
19.916666666666664,0.0023486006489860313
20.0,0.00234860064899897
20.083333333333332,0.002348600649012096
20.166666666666664,0.002348600649025381
20.25,0.002348600649038811
20.333333333333332,0.0023486006490524044
20.416666666666664,0.0023486006490661244
20.5,0.002348600649079999
20.583333333333332,0.0023486006490940252
20.666666666666664,0.002348600649108248
20.75,0.0023486006491226373
20.833333333333332,0.002348600649137179
20.916666666666664,0.0023486006491518926
21.0,0.002348600649166738
21.083333333333332,0.002348600649181746
21.166666666666664,0.002348600649196912
21.25,0.002348600649212285
21.333333333333332,0.002348600649227832
21.416666666666664,0.0023486006492435384
21.5,0.0023486006492594246
21.583333333333332,0.002348600649275449
21.666666666666664,0.002348600649291643
21.75,0.0023486006493080034
21.833333333333332,0.002348600649324579
21.916666666666664,0.002348600649341337
22.0,0.0023486006493582618
22.083333333333332,0.0023486006493753744
22.166666666666664,0.0023486006493926314
22.25,0.002348600649410066
22.333333333333332,0.0023486006494276737
22.416666666666664,0.0023486006494455067
22.5,0.00234860064946353
22.583333333333332,0.0023486006494817272
22.666666666666664,0.0023486006495001205
22.75,0.0023486006495186647
22.833333333333332,0.002348600649537394
22.916666666666664,0.0023486006495563043
23.0,0.002348600649575449
23.083333333333332,0.002348600649594793
23.166666666666664,0.0023486006496143182
23.25,0.0023486006496340472
23.333333333333332,0.0023486006496539337
23.416666666666664,0.0023486006496740127
23.5,0.0023486006496942807
23.583333333333332,0.0023486006497147926
23.666666666666664,0.0023486006497355117
23.75,0.0023486006497564194
23.833333333333332,0.0023486006497775397
23.916666666666664,0.002348600649798824
24.0,0.0023486006498203084
24.083333333333332,0.0023486006498419894
24.166666666666664,0.002348600649863924
24.25,0.002348600649886075
24.333333333333332,0.0023486006499084215
24.416666666666664,0.002348600649930989
24.5,0.002348600649953727
24.583333333333332,0.0023486006499766733
24.666666666666664,0.0023486006499998237
24.75,0.0023486006500232377
24.833333333333332,0.0023486006500468754
24.916666666666664,0.002348600650070718
25.0,0.0023486006500947894
25.083333333333332,0.0023486006501190373
25.166666666666664,0.0023486006501435017
25.25,0.0023486006501681786
25.333333333333332,0.0023486006501931287
25.416666666666664,0.0023486006502183112
25.5,0.0023486006502437054
25.583333333333332,0.0023486006502693372
25.666666666666664,0.002348600650295153
25.75,0.002348600650321193
25.833333333333332,0.0023486006503474527
25.916666666666664,0.002348600650373996
26.0,0.0023486006504007803
26.083333333333332,0.0023486006504277843
26.166666666666664,0.002348600650455034
26.25,0.0023486006504824745
26.333333333333332,0.0023486006505101472
26.416666666666664,0.0023486006505380476
26.5,0.0023486006505662425
26.583333333333332,0.002348600650594686
26.666666666666664,0.0023486006506233574
26.75,0.0023486006506522835
26.833333333333332,0.002348600650681407
26.916666666666664,0.0023486006507107706
27.0,0.00234860065074037
27.083333333333332,0.0023486006507702738
27.166666666666664,0.0023486006508004354
27.25,0.0023486006508308317
27.333333333333332,0.0023486006508614925
27.416666666666664,0.0023486006508923567
27.5,0.0023486006509234702
27.583333333333332,0.0023486006509548267
27.666666666666664,0.002348600650986498
27.75,0.002348600651018436
27.833333333333332,0.0023486006510506172
27.916666666666664,0.002348600651083071
28.0,0.002348600651115735
28.083333333333332,0.0023486006511486564
28.166666666666664,0.0023486006511818295
28.25,0.0023486006512153275
28.333333333333332,0.0023486006512491004
28.416666666666664,0.002348600651283125
28.5,0.0023486006513174307
28.583333333333332,0.002348600651351954
28.666666666666664,0.0023486006513867425
28.75,0.0023486006514217912
28.833333333333332,0.0023486006514571753
28.916666666666664,0.002348600651492843
29.0,0.0023486006515287703
29.083333333333332,0.002348600651564988
29.166666666666664,0.0023486006516014297
29.25,0.0023486006516381455
29.333333333333332,0.002348600651675129
29.416666666666664,0.0023486006517124585
29.5,0.0023486006517500807
29.583333333333332,0.00234860065178797
29.666666666666664,0.002348600651826159
29.75,0.0023486006518645794
29.833333333333332,0.002348600651903282
29.916666666666664,0.0023486006519422603
30.0,0.002348600651981595
30.083333333333332,0.0023486006520212323
30.166666666666664,0.0023486006520611444
30.25,0.002348600652101365
30.333333333333332,0.0023486006521418238
30.416666666666664,0.002348600652182573
30.5,0.0023486006522236073
30.583333333333332,0.0023486006522650082
30.666666666666664,0.00234860065230672
30.75,0.0023486006523487156
30.833333333333332,0.002348600652391028
30.916666666666664,0.0023486006524335865
31.0,0.0023486006524764433
31.083333333333332,0.002348600652519593
31.166666666666664,0.002348600652563121
31.25,0.002348600652606968
31.333333333333332,0.0023486006526511074
31.416666666666664,0.0023486006526955727
31.5,0.0023486006527402904
31.583333333333332,0.002348600652785316
31.666666666666664,0.0023486006528306426
31.75,0.0023486006528763573
31.833333333333332,0.002348600652922401
31.916666666666664,0.002348600652968745
32.0,0.002348600653015425
32.08333333333333,0.0023486006530623635
32.166666666666664,0.002348600653109598
32.25,0.0023486006531571483
32.33333333333333,0.0023486006532050224
32.416666666666664,0.0023486006532532225
32.5,0.0023486006533017497
32.58333333333333,0.002348600653350605
32.666666666666664,0.00234860065339979
32.75,0.002348600653449306
32.83333333333333,0.002348600653499154
32.916666666666664,0.0023486006535493346
33.0,0.0023486006535998498
33.08333333333333,0.002348600653650701
33.166666666666664,0.002348600653701889
33.25,0.002348600653753415
33.33333333333333,0.002348600653805281
33.416666666666664,0.002348600653857487
33.5,0.002348600653910036
33.58333333333333,0.002348600653962928
33.666666666666664,0.0023486006540161647
33.75,0.0023486006540697473
33.83333333333333,0.0023486006541236764
33.916666666666664,0.002348600654177954
34.0,0.0023486006542325815
34.08333333333333,0.00234860065428756
34.166666666666664,0.002348600654342891
34.25,0.002348600654398575
34.33333333333333,0.0023486006544546135
34.416666666666664,0.002348600654511008
34.5,0.0023486006545677604
34.58333333333333,0.002348600654624871
34.666666666666664,0.0023486006546823415
34.75,0.002348600654740173
34.83333333333333,0.0023486006547983663
34.916666666666664,0.002348600654856924
35.0,0.002348600654915846
35.08333333333333,0.002348600654975135
35.166666666666664,0.002348600655034791
35.25,0.0023486006550948154
35.33333333333333,0.00234860065515521
35.416666666666664,0.0023486006552159763
35.5,0.002348600655277115
35.58333333333333,0.0023486006553386273
35.666666666666664,0.002348600655400515
35.75,0.002348600655462779
35.83333333333333,0.0023486006555254206
35.916666666666664,0.0023486006555884413
36.0,0.0023486006556518424
36.08333333333333,0.0023486006557156248
36.166666666666664,0.0023486006557797904
36.25,0.00234860065584434
36.33333333333333,0.002348600655909275
36.416666666666664,0.0023486006559745964
36.5,0.002348600656040306
36.58333333333333,0.0023486006561064046
36.666666666666664,0.002348600656172894
36.75,0.002348600656239775
36.83333333333333,0.0023486006563070492
36.916666666666664,0.0023486006563747178
37.0,0.0023486006564427822
37.08333333333333,0.0023486006565112435
37.166666666666664,0.0023486006565801034
37.25,0.0023486006566493627
37.33333333333333,0.0023486006567190226
37.416666666666664,0.002348600656789085
37.5,0.002348600656859952
37.58333333333333,0.002348600656936397
37.666666666666664,0.002348600657022691
37.75,0.002348600657120971
37.83333333333333,0.0023486006572318967
37.916666666666664,0.0023486006573553188
38.0,0.002348600657486074
38.08333333333333,0.002348600657618946
38.166666666666664,0.002348600657753108
38.25,0.00234860065788798
38.33333333333333,0.0023486006580231687
38.416666666666664,0.002348600658158408
38.5,0.0023486006582935206
38.58333333333333,0.0023486006584283875
38.666666666666664,0.002348600658562931
38.75,0.0023486006586970996
38.83333333333333,0.0023486006588308616
38.916666666666664,0.002348600658964198
39.0,0.0023486006590970982
39.08333333333333,0.0023486006592295565
39.166666666666664,0.002348600659361572
39.25,0.0023486006594931465
39.33333333333333,0.0023486006596242837
39.416666666666664,0.002348600659754988
39.5,0.002348600659885264
39.58333333333333,0.0023486006600151187
39.666666666666664,0.002348600660144558
39.75,0.0023486006602735886
39.83333333333333,0.002348600660402217
39.916666666666664,0.00234860066053045
40.0,0.002348600660658294
40.08333333333333,0.0023486006607857557
40.166666666666664,0.002348600660912843
40.25,0.002348600661039562
40.33333333333333,0.0023486006611659186
40.416666666666664,0.0023486006612919203
40.5,0.0023486006614175745
40.58333333333333,0.002348600661542886
40.666666666666664,0.0023486006616678635
40.75,0.0023486006617925116
40.83333333333333,0.0023486006619168383
40.916666666666664,0.0023486006620408494
41.0,0.0023486006621645512
41.08333333333333,0.002348600662287951
41.166666666666664,0.002348600662411054
41.25,0.0023486006625338678
41.33333333333333,0.0023486006626563974
41.416666666666664,0.0023486006627786494
41.5,0.002348600662900631
41.58333333333333,0.0023486006630223473
41.666666666666664,0.0023486006631438044
41.75,0.002348600663265009
41.83333333333333,0.002348600663385967
41.916666666666664,0.0023486006635066847
42.0,0.0023486006636271673
42.08333333333333,0.0023486006637474213
42.166666666666664,0.002348600663867453
42.25,0.0023486006639872677
42.33333333333333,0.0023486006641068712
42.416666666666664,0.00234860066422627
42.5,0.0023486006643454694
42.58333333333333,0.002348600664464475
42.666666666666664,0.0023486006645832926
42.75,0.0023486006647019286
42.83333333333333,0.0023486006648203877
42.916666666666664,0.0023486006649386763
43.0,0.0023486006650567993
43.08333333333333,0.0023486006651747627
43.166666666666664,0.0023486006652925716
43.25,0.0023486006654102323
43.33333333333333,0.0023486006655277494
43.416666666666664,0.002348600665645129
43.5,0.0023486006657623764
43.58333333333333,0.0023486006658794967
43.666666666666664,0.002348600665996495
43.75,0.0023486006661133777
43.83333333333333,0.002348600666230149
43.916666666666664,0.0023486006663468143
44.0,0.002348600666463379
44.08333333333333,0.0023486006665798483
44.166666666666664,0.0023486006666962275
44.25,0.002348600666812522
44.33333333333333,0.002348600666928736
44.416666666666664,0.0023486006670448752
44.5,0.002348600667160945
44.58333333333333,0.0023486006672769496
44.666666666666664,0.0023486006673928946
44.75,0.0023486006675087845
44.83333333333333,0.0023486006676246246
44.916666666666664,0.0023486006677404195
45.0,0.0023486006678561746
45.08333333333333,0.0023486006679718945
45.166666666666664,0.0023486006680875837
45.25,0.0023486006682032477
45.33333333333333,0.0023486006683188904
45.416666666666664,0.002348600668434517
45.5,0.002348600668550133
45.58333333333333,0.002348600668665742
45.666666666666664,0.0023486006687813495
45.75,0.0023486006688969593
45.83333333333333,0.0023486006690125764
45.916666666666664,0.0023486006691282057
46.0,0.002348600669243852
46.08333333333333,0.002348600669359519
46.166666666666664,0.0023486006694752115
46.25,0.0023486006695909345
46.33333333333333,0.0023486006697066917
46.416666666666664,0.002348600669822488
