M.L_b.pH Time [a],M.L_b.pH pH [mol/kg]
0.0,8.258668998920138
100.0,8.259743296980934
200.0,8.261952098357465
300.0,8.26323862897123
400.0,8.263980753962654
500.0,8.264424815484956
600.0,8.26470457498785
700.0,8.26489313105408
800.0,8.265030364979603
900.0,8.265136932933578
1000.0,8.265224961414457
1100.0,8.265301568141222
1200.0,8.26536993910068
1300.0,8.265431953929614
1400.0,8.265489443046242
1500.0,8.265542927828864
1600.0,8.265593147983216
1700.0,8.265639460795683
1800.0,8.26568266778834
1900.0,8.265723336182733
2000.0,8.265761784122299
2100.0,8.26579795616735
2200.0,8.265832481522713
2300.0,8.265865819343306
2400.0,8.265898333162097
2500.0,8.26593017708419
2600.0,8.265961430447087
2700.0,8.265992165445327
2800.0,8.266022395513172
2900.0,8.26605215954739
3000.0,8.266081459076766
3100.0,8.266110310788312
3200.0,8.26613872550978
3300.0,8.266166703219755
3400.0,8.26619426416647
3500.0,8.266221388815557
3600.0,8.26624812005716
3700.0,8.26627443076523
3800.0,8.26630035076352
3900.0,8.266325876624906
4000.0,8.266351006686286
4100.0,8.26637576585732
4200.0,8.266400141428795
4300.0,8.266424152054737
4400.0,8.266447802387912
4500.0,8.266471077358513
4600.0,8.26649401331397
4700.0,8.266516601177184
4800.0,8.266538828508402
4900.0,8.266560743889343
5000.0,8.26658231065281
5100.0,8.266603545901356
5200.0,8.266624475455638
5300.0,8.266645076175465
5400.0,8.266665361516427
5500.0,8.26668535032677
5600.0,8.266705033460468
5700.0,8.266724401892267
5800.0,8.266743492311555
5900.0,8.266762300829425
6000.0,8.266780797300338
6100.0,8.266799025885382
6200.0,8.266816995270924
6300.0,8.266834670627317
6400.0,8.266852069019745
6500.0,8.266869231587984
6600.0,8.266886123095572
6700.0,8.266902746760382
6800.0,8.266919125206021
6900.0,8.26693526379266
7000.0,8.266951153884417
7100.0,8.266966796892593
7200.0,8.266982197297196
7300.0,8.266997379748139
7400.0,8.267012334845921
7500.0,8.267027047376448
7600.0,8.267041523614148
7700.0,8.267055807504292
7800.0,8.267069883814129
7900.0,8.267083723349932
8000.0,8.267097335017931
8100.0,8.267110764382714
8200.0,8.267124009795165
8300.0,8.267137035450524
8400.0,8.267149851546915
8500.0,8.26716246577364
8600.0,8.267174918774698
8700.0,8.26718717952963
8800.0,8.26719924760407
8900.0,8.267211126646714
9000.0,8.267222819101871
9100.0,8.26723434339679
9200.0,8.267245702054371
9300.0,8.267256889774183
9400.0,8.267267905228081
9500.0,8.267278742754025
9600.0,8.267289394033401
9700.0,8.267299912454874
9800.0,8.26731028529192
9900.0,8.26732050490945
10000.0,8.267330558938147
10100.0,8.267340435893546
10200.0,8.26735014900355
10300.0,8.267359745143061
10400.0,8.267369218936517
10500.0,8.267378554313385
10600.0,8.267387726689337
10700.0,8.267396745726705
10800.0,8.267405618344748
10900.0,8.267414352465416
11000.0,8.267422991962627
11100.0,8.267431515221228
11200.0,8.267439894833188
11300.0,8.2674481377775
11400.0,8.267456249292758
11500.0,8.267464232485857
11600.0,8.267472089764727
11700.0,8.267479838077223
11800.0,8.267487487239636
11900.0,8.267495020565113
12000.0,8.267502438774699
12100.0,8.26750974216979
12200.0,8.2675169317772
12300.0,8.267524009067047
12400.0,8.267530975429626
12500.0,8.267537806041773
12600.0,8.267544550312078
12700.0,8.267551216286789
12800.0,8.26755779022085
12900.0,8.267564267792558
13000.0,8.267570647501536
13100.0,8.267576928881084
13200.0,8.267583109400862
13300.0,8.267589169821777
13400.0,8.267595122032397
13500.0,8.267600973309307
13600.0,8.267606762172731
13700.0,8.26761249390434
13800.0,8.267618150492561
13900.0,8.267623726907521
14000.0,8.267629220809104
14100.0,8.267634626151864
14200.0,8.267639924508828
14300.0,8.267645127492587
14400.0,8.26765024259233
14500.0,8.267655274281864
14600.0,8.267660225382047
14700.0,8.267665099261322
14800.0,8.267669938816672
14900.0,8.267674731567443
15000.0,8.267679462034947
15100.0,8.267684126391483
15200.0,8.267688699994018
15300.0,8.267693187519521
15400.0,8.267697597492905
15500.0,8.267701934819028
15600.0,8.267706202288787
15700.0,8.26771040186646
15800.0,8.267714535123611
15900.0,8.267718603372147
16000.0,8.267722607690713
16100.0,8.267726549241175
16200.0,8.267730453311978
16300.0,8.267734336737336
16400.0,8.267738161662114
16500.0,8.267741915764349
16600.0,8.267745606937924
16700.0,8.267749238069808
16800.0,8.267752811065309
16900.0,8.26775632737388
17000.0,8.267759788214933
17100.0,8.267763194647465
17200.0,8.267766547615834
17300.0,8.267769848010726
17400.0,8.267773096605218
17500.0,8.267776294238526
17600.0,8.267779441758234
17700.0,8.267782539969584
17800.0,8.26778558964209
17900.0,8.267788575722948
18000.0,8.267791502643362
18100.0,8.267794420775209
18200.0,8.267797311489174
18300.0,8.267800165417373
18400.0,8.267802980350515
18500.0,8.267805754035617
18600.0,8.26780848584481
18700.0,8.267811175562741
18800.0,8.267813823520202
18900.0,8.267816430204718
19000.0,8.267818996230266
19100.0,8.267821522119547
19200.0,8.267824008460353
19300.0,8.267826455857149
19400.0,8.267828864913565
19500.0,8.267831236224117
19600.0,8.267833570337057
19700.0,8.267835867838533
19800.0,8.267838128167758
19900.0,8.267840323773958
20000.0,8.26784247414154
20100.0,8.267844585247499
20200.0,8.267846659443043
20300.0,8.267848698852575
20400.0,8.267850705074638
20500.0,8.267852679243498
20600.0,8.267854636526057
20700.0,8.267856607299539
20800.0,8.267858568237626
20900.0,8.267860508648347
21000.0,8.267862424004258
21100.0,8.267864313131163
21200.0,8.267866174468066
21300.0,8.267868007645006
21400.0,8.267869812538663
21500.0,8.267871589432136
21600.0,8.267873338587249
21700.0,8.26787506040864
21800.0,8.267876755327633
21900.0,8.267878423708153
22000.0,8.267880065951411
22100.0,8.267881682462907
22200.0,8.267883273634673
22300.0,8.267884839880203
22400.0,8.267886381546576
22500.0,8.26788789903087
22600.0,8.267889389228769
22700.0,8.26789082226388
22800.0,8.267892226651027
22900.0,8.26789360313636
23000.0,8.267894955640212
23100.0,8.267896285661951
23200.0,8.267897593780203
23300.0,8.267898880721447
23400.0,8.267900147131499
23500.0,8.267901393519612
23600.0,8.267902620296088
23700.0,8.267903827815218
23800.0,8.267905016381718
23900.0,8.26790618633663
24000.0,8.267907337936085
24100.0,8.267908471487507
24200.0,8.267909587287159
24300.0,8.267910685616984
24400.0,8.267911766750046
24500.0,8.267912830954774
24600.0,8.267913878496095
24700.0,8.267914909635131
24800.0,8.267915924628879
24900.0,8.267916931606086
25000.0,8.26791796720558
25100.0,8.267919011064846
25200.0,8.267920050766715
25300.0,8.2679210803943
25400.0,8.2679220973061
25500.0,8.267923100330007
25600.0,8.267924088831682
25700.0,8.267925062460323
25800.0,8.267926021135938
25900.0,8.267926964946986
26000.0,8.267927894064862
26100.0,8.267928808666216
26200.0,8.267929708956474
26300.0,8.26793059514738
26400.0,8.267931467440523
26500.0,8.267932326071884
26600.0,8.267933171226518
26700.0,8.26793400312735
26800.0,8.267934821990153
26900.0,8.267935628021089
27000.0,8.267936421420405
27100.0,8.267937202385236
27200.0,8.267937971110252
27300.0,8.267938727787369
27400.0,8.267939472605496
27500.0,8.267940205221946
27600.0,8.267940896880717
27700.0,8.26794156537358
27800.0,8.267942216510443
27900.0,8.26794285581443
28000.0,8.26794348222792
28100.0,8.267944097693592
28200.0,8.267944703535118
28300.0,8.267945299594187
28400.0,8.267945886044643
28500.0,8.267946463150027
28600.0,8.267947031134948
28700.0,8.26794759018476
28800.0,8.26794814046003
28900.0,8.267948682107892
29000.0,8.267949215268162
29100.0,8.267949740071964
29200.0,8.267950256651162
29300.0,8.26795076512949
29400.0,8.267951265641226
29500.0,8.267951758315123
29600.0,8.267952243274541
29700.0,8.267952720639796
29800.0,8.267953190529479
29900.0,8.267953653060632
30000.0,8.267954108348565
30100.0,8.267954556506757
30200.0,8.267954997646866
30300.0,8.267955431878788
30400.0,8.267955859310698
30500.0,8.267956280049086
30600.0,8.26795669419877
30700.0,8.267957101862967
30800.0,8.267957503143219
30900.0,8.267957898139569
31000.0,8.267958286950359
31100.0,8.267958669672415
31200.0,8.267959046401051
31300.0,8.267959417230141
31400.0,8.267959782252033
31500.0,8.267960141557714
31600.0,8.267960495236752
31700.0,8.26796084337725
31800.0,8.267961186065994
31900.0,8.267961523388303
32000.0,8.267961855428181
32100.0,8.26796218226832
32200.0,8.267962503990166
32300.0,8.267962820673832
32400.0,8.26796313239826
32500.0,8.267963439241155
32600.0,8.267963741278955
32700.0,8.267964038586953
32800.0,8.267964331239167
32900.0,8.26796461930848
33000.0,8.26796490286663
33100.0,8.26796518198428
33200.0,8.267965456730934
33300.0,8.26796572717508
33400.0,8.267965993384108
33500.0,8.267966255424346
33600.0,8.26796651336107
33700.0,8.267966767258542
33800.0,8.267967017180014
33900.0,8.26796726318775
34000.0,8.267967505343039
34100.0,8.267967743706212
34200.0,8.26796797833665
34300.0,8.267968209292807
34400.0,8.267968436632222
34500.0,8.267968660411535
34600.0,8.267968880686494
34700.0,8.26796909751198
34800.0,8.267969310942007
34900.0,8.26796952102975
35000.0,8.267969727827566
35100.0,8.267969931386967
35200.0,8.2679701317587
35300.0,8.267970328992652
35400.0,8.267970523137944
35500.0,8.26797071424292
35600.0,8.267970902355207
35700.0,8.267971087521644
35800.0,8.267971269788392
35900.0,8.267971449200868
36000.0,8.26797162580377
36100.0,8.2679717996411
36200.0,8.267971970756157
36300.0,8.267972139191578
36400.0,8.267972304989321
36500.0,8.267972468190695
36600.0,8.26797262883636
36700.0,8.267972786966347
36800.0,8.26797294262005
36900.0,8.26797309583627
37000.0,8.267973246653154
37100.0,8.267973395108264
37200.0,8.267973541238568
37300.0,8.26797368508048
37400.0,8.267973826669822
37500.0,8.267973966041884
37600.0,8.267974103231401
37700.0,8.26797423827255
37800.0,8.267974371198974
37900.0,8.267974502043787
38000.0,8.26797463083959
38100.0,8.267974757618468
38200.0,8.267974882412005
38300.0,8.267975005251293
38400.0,8.267975126166933
38500.0,8.267975245189051
38600.0,8.267975362347299
38700.0,8.267975477670866
38800.0,8.267975591188481
38900.0,8.267975702928425
39000.0,8.267975812918536
39100.0,8.267975921186219
39200.0,8.267976027758444
39300.0,8.267976132661762
39400.0,8.267976235922307
39500.0,8.267976337565807
39600.0,8.267976437617584
39700.0,8.267976536102562
39800.0,8.26797663304528
39900.0,8.267976728469888
40000.0,8.26797682240016
40100.0,8.267976914859494
40200.0,8.26797700587093
40300.0,8.26797709545714
40400.0,8.26797718364044
40500.0,8.2679772704428
40600.0,8.26797735588585
40700.0,8.267977439990874
40800.0,8.26797752277883
40900.0,8.267977604270342
41000.0,8.267977684485727
41100.0,8.267977763444955
41200.0,8.267977841167689
41300.0,8.267977917673285
41400.0,8.267977992980807
41500.0,8.267978067109011
41600.0,8.267978140076373
41700.0,8.267978211901077
41800.0,8.267978282601016
41900.0,8.267978352193804
42000.0,8.26797842069678
42100.0,8.267978488127005
42200.0,8.267978554501285
42300.0,8.267978619836152
42400.0,8.267978684147883
42500.0,8.267978747452501
42600.0,8.267978809765776
42700.0,8.267978871103235
42800.0,8.267978931480158
42900.0,8.267978990911585
43000.0,8.267979049412325
43100.0,8.26797910699695
43200.0,8.26797916367981
43300.0,8.267979219475022
43400.0,8.267979274396488
43500.0,8.267979328457892
43600.0,8.267979381672703
43700.0,8.267979434054174
43800.0,8.267979485615362
43900.0,8.267979536369106
44000.0,8.26797958693437
44100.0,8.26797968432894
44200.0,8.267979803621243
44300.0,8.267979933922389
44400.0,8.267980069337394
44500.0,8.267980207656006
44600.0,8.26798034669013
44700.0,8.267980485159521
44800.0,8.267980622255731
44900.0,8.267980757507708
45000.0,8.26798089081761
45100.0,8.267981022236317
45200.0,8.26798115185057
45300.0,8.267981279538242
45400.0,8.267981405261526
45500.0,8.267981528796831
45600.0,8.267981650309991
45700.0,8.267981769945909
45800.0,8.267981887747423
45900.0,8.267982003853932
46000.0,8.267982118222914
46100.0,8.267982230822374
46200.0,8.267982341660238
46300.0,8.2679824507601
46400.0,8.267982558149168
46500.0,8.267982663854635
46600.0,8.267982767902748
46700.0,8.267982870320148
46800.0,8.267982971129916
46900.0,8.267983070357865
47000.0,8.267983168030284
47100.0,8.267983264171578
47200.0,8.26798335880837
47300.0,8.267983451962579
47400.0,8.26798354365712
47500.0,8.267983633912367
47600.0,8.26798372275139
47700.0,8.267983810197743
47800.0,8.267983896273284
47900.0,8.267983981001844
48000.0,8.267984064403047
48100.0,8.267984146497403
48200.0,8.267984227303158
48300.0,8.267984306840964
48400.0,8.267984385131905
48500.0,8.267984462195557
48600.0,8.267984538053256
48700.0,8.267984612722564
48800.0,8.267984686221853
48900.0,8.267984758567453
49000.0,8.267984829777854
49100.0,8.267984899871935
49200.0,8.26798496886722
49300.0,8.267985036782811
49400.0,8.267985103634434
49500.0,8.267985169438536
49600.0,8.267985234209736
49700.0,8.267985297964588
49800.0,8.26798536072
49900.0,8.267985422491654
50000.0,8.267985483296656
50100.0,8.267985543149084
50200.0,8.267985602063664
50300.0,8.267985660053485
50400.0,8.267985717133367
50500.0,8.267985773318447
50600.0,8.267985828622768
50700.0,8.267985883061641
50800.0,8.267985936647674
50900.0,8.267985989394049
51000.0,8.267986041312485
51100.0,8.26798609241625
51200.0,8.267986142718895
51300.0,8.267986192232993
51400.0,8.267986240972256
51500.0,8.267986288948116
51600.0,8.26798633617211
51700.0,8.267986382655874
51800.0,8.267986428410843
51900.0,8.267986473448701
52000.0,8.267986517779601
52100.0,8.267986561414896
52200.0,8.26798660436615
52300.0,8.267986646644095
52400.0,8.26798668826044
52500.0,8.267986729224946
52600.0,8.267986769547464
52700.0,8.267986809237936
52800.0,8.26798684830612
52900.0,8.267986886761994
53000.0,8.267986924614226
53100.0,8.267986961872513
53200.0,8.267986998546727
53300.0,8.26798703464603
53400.0,8.267987070180421
53500.0,8.267987105158236
53600.0,8.267987139587886
53700.0,8.26798717347786
53800.0,8.267987206836487
53900.0,8.26798723967229
54000.0,8.26798727199267
54100.0,8.267987303805905
54200.0,8.267987335120424
54300.0,8.267987365944053
54400.0,8.26798739628533
54500.0,8.267987426151368
54600.0,8.267987455549353
54700.0,8.267987484486532
54800.0,8.267987512970016
54900.0,8.267987541007086
55000.0,8.267987568604056
55100.0,8.267987595767996
55200.0,8.267987622506107
55300.0,8.267987648825068
55400.0,8.267987674732167
55500.0,8.267987700233482
55600.0,8.267987725335146
55700.0,8.267987750043348
55800.0,8.26798777436416
55900.0,8.267987798303796
56000.0,8.267987821867653
56100.0,8.267987845061764
56200.0,8.267987867892277
56300.0,8.267987890364896
56400.0,8.267987912485843
56500.0,8.267987934260312
56600.0,8.267987955693535
56700.0,8.267987976790797
56800.0,8.267987997557283
56900.0,8.2679880179983
57000.0,8.267988038118455
57100.0,8.267988057922901
57200.0,8.267988077416884
57300.0,8.26798809660528
57400.0,8.267988115493397
57500.0,8.267988134085671
57600.0,8.26798815238657
57700.0,8.267988170400606
57800.0,8.267988188132207
57900.0,8.267988205585906
58000.0,8.267988222765634
58100.0,8.267988239675791
58200.0,8.267988256320859
58300.0,8.267988272704997
58400.0,8.267988288832742
58500.0,8.267988304707877
58600.0,8.26798832033422
58700.0,8.267988335715625
58800.0,8.267988350855871
58900.0,8.267988365758827
59000.0,8.267988380427852
59100.0,8.267988394866702
59200.0,8.267988409079203
59300.0,8.267988423068907
59400.0,8.267988436839689
59500.0,8.267988450394778
59600.0,8.267988463737435
59700.0,8.267988476870949
59800.0,8.26798848979855
59900.0,8.267988502523536
60000.0,8.26798851504878
60100.0,8.267988527377488
60200.0,8.267988539512928
60300.0,8.267988551458128
60400.0,8.2679885632164
60500.0,8.267988574790504
60600.0,8.267988586183222
60700.0,8.267988597397359
60800.0,8.267988608435676
60900.0,8.26798861930099
61000.0,8.267988629995752
61100.0,8.2679886405227
61200.0,8.267988650884625
61300.0,8.267988661084116
61400.0,8.267988671123994
61500.0,8.267988681006619
61600.0,8.267988690734365
61700.0,8.267988700309632
61800.0,8.267988709734771
61900.0,8.267988719012191
62000.0,8.267988728143985
62100.0,8.267988737132491
62200.0,8.267988745980087
62300.0,8.26798875468899
62400.0,8.267988763261608
62500.0,8.267988771699953
62600.0,8.267988780006053
62700.0,8.267988788181956
62800.0,8.2679887962252
62900.0,8.267988804144366
63000.0,8.267988811909218
63100.0,8.267988819548137
63200.0,8.267988827067152
63300.0,8.267988834468767
63400.0,8.267988841754912
63500.0,8.267988848927406
63600.0,8.267988855988023
63700.0,8.267988862938505
63800.0,8.267988869780574
63900.0,8.267988876515918
64000.0,8.267988883146204
64100.0,8.26798888967307
64200.0,8.267988896098128
64300.0,8.26798890242297
64400.0,8.267988908649153
64500.0,8.267988914778218
64600.0,8.267988920811684
64700.0,8.267988926751036
64800.0,8.267988932597747
64900.0,8.267988938353259
65000.0,8.267988944018997
65100.0,8.26798894959636
65200.0,8.267988955086725
65300.0,8.26798896049145
65400.0,8.267988965811874
65500.0,8.267988971049308
65600.0,8.267988976205046
65700.0,8.267988981280364
65800.0,8.267988986276517
65900.0,8.26798899119474
66000.0,8.267988996036248
66100.0,8.267989000802238
66200.0,8.267989005493886
66300.0,8.267989010112354
66400.0,8.267989014658781
66500.0,8.267989019134292
66600.0,8.267989023539995
66700.0,8.267989027876975
66800.0,8.267989032146309
66900.0,8.267989036349046
67000.0,8.26798904048623
67100.0,8.267989044558881
67200.0,8.267989048568007
67300.0,8.267989052514597
67400.0,8.267989056399628
67500.0,8.267989060224059
67600.0,8.267989063988836
67700.0,8.26798906769489
67800.0,8.267989071343136
67900.0,8.267989074934476
68000.0,8.267989078469798
68100.0,8.267989081949976
68200.0,8.267989085375868
68300.0,8.267989088748323
68400.0,8.267989092068174
68500.0,8.26798909533624
68600.0,8.267989098553333
68700.0,8.267989101720243
68800.0,8.267989104837756
68900.0,8.267989107906642
69000.0,8.267989110927658
69100.0,8.267989113901553
69200.0,8.26798911682906
69300.0,8.267989119710903
69400.0,8.267989122547796
69500.0,8.267989125340437
69600.0,8.267989128089518
69700.0,8.26798913079572
69800.0,8.267989133459709
69900.0,8.267989136082145
70000.0,8.267989138663674
70100.0,8.267989141204938
70200.0,8.267989143706563
70300.0,8.267989146169166
70400.0,8.267989148593358
70500.0,8.267989150979737
70600.0,8.267989153328893
70700.0,8.267989155641406
70800.0,8.267989157917848
70900.0,8.267989160158782
71000.0,8.267989162364762
71100.0,8.267989164536331
71200.0,8.26798916667403
71300.0,8.267989168778383
71400.0,8.267989170849912
71500.0,8.267989172889129
71600.0,8.267989174896538
71700.0,8.267989176872636
71800.0,8.26798917881791
71900.0,8.267989180732842
72000.0,8.267989182617903
72100.0,8.267989184473562
72200.0,8.267989186300275
72300.0,8.267989188098495
72400.0,8.267989189868667
72500.0,8.267989191611226
72600.0,8.267989193326605
72700.0,8.267989195015229
72800.0,8.267989196677512
72900.0,8.267989198313867
73000.0,8.267989199924695
73100.0,8.2679892015104
73200.0,8.267989203071371
73300.0,8.267989204607993
73400.0,8.267989206120646
73500.0,8.267989207609705
73600.0,8.267989209075537
73700.0,8.267989210518506
73800.0,8.267989211938966
73900.0,8.26798921333727
74000.0,8.267989214713763
74100.0,8.267989216068786
74200.0,8.267989217402672
74300.0,8.267989218715751
74400.0,8.267989220008351
74500.0,8.267989221280788
74600.0,8.267989222533377
74700.0,8.267989223766426
74800.0,8.267989224980242
74900.0,8.267989226175127
75000.0,8.267989227351373
75100.0,8.267989228509272
75200.0,8.267989229649109
75300.0,8.267989230771168
75400.0,8.267989231875724
75500.0,8.267989232963052
75600.0,8.267989234033418
75700.0,8.26798923508709
75800.0,8.267989236124325
75900.0,8.267989237145382
76000.0,8.267989238150513
76100.0,8.267989239139965
76200.0,8.267989240113982
76300.0,8.267989241072808
76400.0,8.267989242016679
76500.0,8.267989242945825
76600.0,8.267989243860479
76700.0,8.267989244760866
76800.0,8.267989245647207
76900.0,8.267989246519726
77000.0,8.267989247378633
77100.0,8.267989248224143
77200.0,8.267989249056466
77300.0,8.267989249875805
77400.0,8.267989250682364
77500.0,8.267989251476342
77600.0,8.267989252257935
