M.L_b.pH Time [a],M.L_b.pH pH [mol/kg]
0.0,8.258668998920138
100.0,8.259743980712958
200.0,8.261951115160377
300.0,8.26323751009649
400.0,8.263980784601682
500.0,8.264425060197544
600.0,8.264704839044004
700.0,8.26489324754734
800.0,8.265030435244695
900.0,8.265137787048188
1000.0,8.265226651597274
1100.0,8.265303555360187
1200.0,8.265372101594103
1300.0,8.265434269949232
1400.0,8.265491459960495
1500.0,8.265544846893306
1600.0,8.265595039451455
1700.0,8.265641883036611
1800.0,8.265685593980548
1900.0,8.265726613961899
2000.0,8.265765068430543
2100.0,8.265801148513082
2200.0,8.265835396205643
2300.0,8.265868470438908
2400.0,8.265900852010578
2500.0,8.265932530177729
2600.0,8.265963682181779
2700.0,8.265994331388077
2800.0,8.26602452140655
2900.0,8.266054217203536
3000.0,8.266083470336833
3100.0,8.266112234456607
3200.0,8.266140566065697
3300.0,8.266168475006012
3400.0,8.266195953788745
3500.0,8.266223025312508
3600.0,8.266249691620786
3700.0,8.266275970392137
3800.0,8.266301764658845
3900.0,8.266327180717537
4000.0,8.266352229436489
4100.0,8.266376913389054
4200.0,8.266401248027817
4300.0,8.266425185246185
4400.0,8.266448763834667
4500.0,8.266471996468105
4600.0,8.266494856403584
4700.0,8.266517395114288
4800.0,8.266539606558137
4900.0,8.266561381915146
5000.0,8.266582823553515
5100.0,8.266604003647746
5200.0,8.266624834805963
5300.0,8.266645341109646
5400.0,8.266665583803931
5500.0,8.26668552718722
5600.0,8.26670518927311
5700.0,8.26672454282256
5800.0,8.266743588157324
5900.0,8.266762360728887
6000.0,8.266780850115522
6100.0,8.266799033947462
6200.0,8.266816961649774
6300.0,8.266834632305462
6400.0,8.266852026810842
6500.0,8.266869089145429
6600.0,8.266885915488192
6700.0,8.266902494242771
6800.0,8.266918844878703
6900.0,8.26693495068998
7000.0,8.266950833789513
7100.0,8.266966479798613
7200.0,8.266981862253825
7300.0,8.26699701724249
7400.0,8.267011963815088
7500.0,8.267026674929259
7600.0,8.267041143635396
7700.0,8.267055356443908
7800.0,8.267069383816601
7900.0,8.267083175567377
8000.0,8.267096784433713
8100.0,8.267110169175066
8200.0,8.26712337500701
8300.0,8.267136368298296
8400.0,8.267149183071954
8500.0,8.267161804758656
8600.0,8.267174231421778
8700.0,8.267186482427363
8800.0,8.267198556271087
8900.0,8.26721044461384
9000.0,8.267222146862588
9100.0,8.267233656284919
9200.0,8.267245001981932
9300.0,8.26725619379101
9400.0,8.267267219304257
9500.0,8.267278069434777
9600.0,8.26728873758605
9700.0,8.267299233282614
9800.0,8.267309589139435
9900.0,8.2673198114007
10000.0,8.267329880389328
10100.0,8.267339780859125
10200.0,8.267349511616187
10300.0,8.26735909713567
10400.0,8.267368564229308
10500.0,8.267377901511917
10600.0,8.267387088000008
10700.0,8.267396120678221
10800.0,8.267405004636547
10900.0,8.267413746694393
11000.0,8.2674223722112
11100.0,8.267430888461377
11200.0,8.267439278604579
11300.0,8.267447534160217
11400.0,8.26745565654893
11500.0,8.267463649404043
11600.0,8.267471515926434
11700.0,8.267479263915082
11800.0,8.267486890800344
11900.0,8.267494399784399
12000.0,8.267501815040353
12100.0,8.267509125236716
12200.0,8.26751632438476
12300.0,8.267523411537207
12400.0,8.267530387292716
12500.0,8.267537241482842
12600.0,8.26754398596256
12700.0,8.267550648265722
12800.0,8.26755722777758
12900.0,8.267563713904263
13000.0,8.267570102470017
13100.0,8.267576392720493
13200.0,8.267582580690313
13300.0,8.267588657282673
13400.0,8.267594623654475
13500.0,8.267600485542902
13600.0,8.267606269491049
13700.0,8.267611979355541
13800.0,8.267617625224837
13900.0,8.267623189748477
14000.0,8.267628685743821
14100.0,8.267634097404667
14200.0,8.267639411606071
14300.0,8.267644628470535
14400.0,8.267649754167293
14500.0,8.267654794534106
14600.0,8.267659753509664
14700.0,8.267664633686895
14800.0,8.267669467347467
14900.0,8.267674245839101
15000.0,8.26767896107608
15100.0,8.26768362259274
15200.0,8.267688209330823
15300.0,8.267692712689074
15400.0,8.26769713516452
15500.0,8.267701482041883
15600.0,8.26770575755536
15700.0,8.267709964508782
15800.0,8.267714104806892
15900.0,8.267718179888258
16000.0,8.267722190958658
16100.0,8.26772613907438
16200.0,8.267730039340393
16300.0,8.267733905060894
16400.0,8.267737707749506
16500.0,8.267741447124129
16600.0,8.267745131680343
16700.0,8.267748753290938
16800.0,8.267752328385926
16900.0,8.267755851173963
17000.0,8.267759319470034
17100.0,8.26776273334112
17200.0,8.267766093581027
17300.0,8.267769401095892
17400.0,8.267772656758675
17500.0,8.267775861367532
17600.0,8.267779015791985
17700.0,8.267782120719396
17800.0,8.267785175744034
17900.0,8.267788170918157
18000.0,8.267791103800167
18100.0,8.267794015985713
18200.0,8.26779689685303
18300.0,8.267799744378195
18400.0,8.267802557394976
18500.0,8.267805334754554
18600.0,8.26780807214848
18700.0,8.267810768070124
18800.0,8.26781342234966
18900.0,8.267816035321708
19000.0,8.267818607496359
19100.0,8.267821139445713
19200.0,8.267823631743708
19300.0,8.267826084993645
19400.0,8.26782849976714
19500.0,8.267830876694918
19600.0,8.267833216385338
19700.0,8.267835519422992
19800.0,8.267837779436936
19900.0,8.267839987625155
20000.0,8.267842144461468
20100.0,8.267844258542413
20200.0,8.267846335725466
20300.0,8.26784837884414
20400.0,8.267850389347483
20500.0,8.267852368101856
20600.0,8.267854324247981
20700.0,8.267856289999404
20800.0,8.26785824396235
20900.0,8.26786017808674
21000.0,8.267862091358
21100.0,8.26786397714079
21200.0,8.267865840618775
21300.0,8.267867678015746
21400.0,8.267869487798059
21500.0,8.267871269672165
21600.0,8.267873023819917
21700.0,8.267874750577276
21800.0,8.267876450327941
21900.0,8.267878123447055
22000.0,8.267879770377187
22100.0,8.267881391466764
22200.0,8.267882987138314
22300.0,8.26788455780519
22400.0,8.267886103863182
22500.0,8.267887625696313
22600.0,8.267889121335886
22700.0,8.267890579864364
22800.0,8.26789199878745
22900.0,8.267893383428806
23000.0,8.267894740420102
23100.0,8.26789607353429
23200.0,8.267897384610846
23300.0,8.267898674616763
23400.0,8.267899944159971
23500.0,8.267901193689923
23600.0,8.267902423581917
23700.0,8.267903634175536
23800.0,8.267904825791001
23900.0,8.267905998717815
24000.0,8.267907153284295
24100.0,8.267908289740548
24200.0,8.26790940838716
24300.0,8.2679105095159
24400.0,8.267911593404978
24500.0,8.267912660323777
24600.0,8.267913710537032
24700.0,8.267914744306056
24800.0,8.267915761888474
24900.0,8.267916766739559
25000.0,8.267917800052674
25100.0,8.267918838802144
25200.0,8.267919873462303
25300.0,8.26792089896951
25400.0,8.267921912535613
25500.0,8.26792291424349
25600.0,8.267923901692116
25700.0,8.267924876899118
25800.0,8.267925838089505
25900.0,8.267926784654481
26000.0,8.267927716542376
26100.0,8.267928633893245
26200.0,8.267929536901816
26300.0,8.267930425777157
26400.0,8.267931300718665
26500.0,8.267932161957958
26600.0,8.267933009681842
26700.0,8.26793384411328
26800.0,8.2679346654678
26900.0,8.267935473951638
27000.0,8.267936269765471
27100.0,8.267937053107017
27200.0,8.267937824171538
27300.0,8.26793858315152
27400.0,8.26793933023644
27500.0,8.267940061454896
27600.0,8.267940765845823
27700.0,8.267941443093207
27800.0,8.267942098929508
27900.0,8.267942737744127
28000.0,8.267943364442653
28100.0,8.26794397907352
28200.0,8.267944583472584
28300.0,8.26794517928181
28400.0,8.267945765478803
28500.0,8.267946343913724
28600.0,8.267946913694008
28700.0,8.267947474599248
28800.0,8.267948026697786
28900.0,8.26794857013092
29000.0,8.267949105044668
29100.0,8.267949631578029
29200.0,8.267950149856105
29300.0,8.267950660020617
29400.0,8.267951162183333
29500.0,8.267951656477235
29600.0,8.26795214303037
29700.0,8.267952621965007
29800.0,8.267953093399974
29900.0,8.26795355745229
30000.0,8.267954014237489
30100.0,8.26795446386944
30200.0,8.26795490646022
30300.0,8.267955342120104
30400.0,8.267955770957624
30500.0,8.267956193079609
30600.0,8.267956608591222
30700.0,8.267957017595982
30800.0,8.267957420195856
30900.0,8.267957816491036
31000.0,8.267958206580387
31100.0,8.267958590561035
31200.0,8.267958968528593
31300.0,8.267959340577155
31400.0,8.267959706799513
31500.0,8.267960067286799
31600.0,8.267960422128876
31700.0,8.267960771414236
31800.0,8.26796111522981
31900.0,8.267961453661368
32000.0,8.267961786793169
32100.0,8.267962114708165
32200.0,8.267962437487991
32300.0,8.267962755213151
32400.0,8.267963067962711
32500.0,8.267963375814631
32600.0,8.267963678845684
32700.0,8.267963977131288
32800.0,8.267964270745859
32900.0,8.267964559762497
33000.0,8.267964844253164
33100.0,8.26796512428874
33200.0,8.267965399938992
33300.0,8.267965671272602
33400.0,8.267965938357166
33500.0,8.267966201259222
33600.0,8.267966460044267
33700.0,8.26796671477677
33800.0,8.267966965520156
33900.0,8.267967212336954
34000.0,8.267967455288577
34100.0,8.26796769443559
34200.0,8.267967929837633
34300.0,8.267968161553293
34400.0,8.26796838964038
34500.0,8.267968614155677
34600.0,8.26796883515509
34700.0,8.267969052693637
34800.0,8.267969266825572
34900.0,8.267969477604186
35000.0,8.267969685082019
35100.0,8.267969889310775
35200.0,8.267970090341343
35300.0,8.2679702882238
35400.0,8.267970483007446
35500.0,8.267970674740805
35600.0,8.267970863471648
35700.0,8.26797104924699
35800.0,8.267971232113117
35900.0,8.267971412115585
36000.0,8.26797158929924
36100.0,8.267971763708221
36200.0,8.267971935385983
36300.0,8.267972104375323
36400.0,8.267972270718298
36500.0,8.267972434456405
36600.0,8.267972595630415
36700.0,8.267972754280455
36800.0,8.267972910446028
36900.0,8.267973064166076
37000.0,8.267973215478857
37100.0,8.267973364422087
37200.0,8.267973511032912
37300.0,8.267973655347818
37400.0,8.267973797402812
37500.0,8.267973937233256
37600.0,8.26797407487397
37700.0,8.267974210359224
37800.0,8.267974343722804
37900.0,8.267974474997898
38000.0,8.267974604217232
38100.0,8.267974731413009
38200.0,8.26797485661692
38300.0,8.267974979860156
38400.0,8.267975101173418
38500.0,8.267975220586951
38600.0,8.267975338130475
38700.0,8.26797545383331
38800.0,8.267975567724267
38900.0,8.267975679831704
39000.0,8.267975790183533
39100.0,8.267975898807272
39200.0,8.267976005729954
39300.0,8.267976110978234
39400.0,8.267976214578356
39500.0,8.267976316556108
39600.0,8.267976416936927
39700.0,8.267976515745804
39800.0,8.267976613007347
39900.0,8.267976708745767
40000.0,8.267976802984942
40100.0,8.267976895748324
40200.0,8.267976987059036
40300.0,8.267977076939834
40400.0,8.267977165413113
40500.0,8.267977252500913
40600.0,8.26797733822493
40700.0,8.26797742260652
40800.0,8.267977505666705
40900.0,8.267977587426179
41000.0,8.267977667905312
41100.0,8.267977747124151
41200.0,8.267977825102435
41300.0,8.267977901859588
41400.0,8.267977977414736
41500.0,8.267978051786699
41600.0,8.26797812499401
41700.0,8.267978197054902
41800.0,8.26797826798733
41900.0,8.267978337808966
42000.0,8.267978406537207
42100.0,8.267978474189169
42200.0,8.267978540781712
42300.0,8.267978606331425
42400.0,8.267978670854639
42500.0,8.267978734367427
42600.0,8.267978796885613
42700.0,8.267978858424774
42800.0,8.267978919000239
42900.0,8.2679789786271
43000.0,8.267979037320213
43100.0,8.26797909509421
43200.0,8.267979151963468
43300.0,8.267979207942174
43400.0,8.267979263044268
43500.0,8.267979317283467
43600.0,8.267979370673281
43700.0,8.267979423227018
43800.0,8.267979474957759
43900.0,8.267979525878399
44000.0,8.267979576001656
44100.0,8.267979659017016
44200.0,8.267979776686607
44300.0,8.267979905861006
44400.0,8.267980041071644
44500.0,8.267980178894069
44600.0,8.267980317325174
44700.0,8.26798045520776
44800.0,8.26798059187959
44900.0,8.267980726967833
45000.0,8.267980860268626
45100.0,8.26798099185249
45200.0,8.26798112156991
45300.0,8.26798124960786
45400.0,8.267981375590207
45500.0,8.267981499415397
45600.0,8.267981621135377
45700.0,8.267981740933566
45800.0,8.267981859032886
45900.0,8.267981975346228
46000.0,8.267982090101436
46100.0,8.267982203135578
46200.0,8.267982314410363
46300.0,8.267982423939408
46400.0,8.267982531749597
46500.0,8.267982637869022
46600.0,8.267982742324792
46700.0,8.26798284514177
46800.0,8.267982946347209
46900.0,8.267983045963968
47000.0,8.267983144018435
47100.0,8.267983240537307
47200.0,8.267983335543606
47300.0,8.267983429062541
47400.0,8.267983521114882
47500.0,8.267983611724373
47600.0,8.267983700911493
47700.0,8.267983788699889
47800.0,8.26798387511347
47900.0,8.267983960172852
48000.0,8.267984043900592
48100.0,8.26798412631529
48200.0,8.267984207438198
48300.0,8.267984287287655
48400.0,8.26798436588483
48500.0,8.267984443251132
48600.0,8.267984519405013
48700.0,8.267984594366673
48800.0,8.267984668152762
48900.0,8.26798474078231
49000.0,8.267984812271733
49100.0,8.267984882639984
49200.0,8.267984951906232
49300.0,8.267985020086998
49400.0,8.267985087200364
49500.0,8.267985153261238
49600.0,8.26798521828666
49700.0,8.267985282291322
49800.0,8.267985345292198
49900.0,8.267985407306446
50000.0,8.26798546834886
50100.0,8.267985528435627
50200.0,8.267985587580096
50300.0,8.267985645797522
50400.0,8.267985703101061
50500.0,8.267985759505905
50600.0,8.267985815027421
50700.0,8.26798586967885
50800.0,8.267985923474686
50900.0,8.26798597642688
51000.0,8.267986028549089
51100.0,8.267986079853094
51200.0,8.267986130352496
51300.0,8.267986180061051
51400.0,8.267986228990614
51500.0,8.267986277154163
51600.0,8.267986324562399
51700.0,8.267986371227545
51800.0,8.267986417160152
51900.0,8.267986462372395
52000.0,8.26798650687659
52100.0,8.267986550683354
52200.0,8.267986593804302
52300.0,8.267986636249017
52400.0,8.267986678028443
52500.0,8.267986719152022
52600.0,8.267986759630658
52700.0,8.267986799475379
52800.0,8.267986838695684
52900.0,8.267986877301981
53000.0,8.267986915302842
53100.0,8.267986952708068
53200.0,8.267986989526113
53300.0,8.26798702576674
53400.0,8.267987061439818
53500.0,8.26798709655386
53600.0,8.267987131118174
53700.0,8.267987165140442
53800.0,8.267987198629436
53900.0,8.267987231592727
54000.0,8.267987264039052
54100.0,8.26798729597725
54200.0,8.26798732741494
54300.0,8.26798735836046
54400.0,8.267987388820682
54500.0,8.267987418803463
54600.0,8.267987448315582
54700.0,8.267987477364859
54800.0,8.26798750595921
54900.0,8.267987534105455
55000.0,8.267987561811056
55100.0,8.267987589082171
55200.0,8.267987615925833
55300.0,8.267987642348107
55400.0,8.267987668356
55500.0,8.267987693956595
55600.0,8.267987719155999
55700.0,8.267987743960896
55800.0,8.267987768376795
55900.0,8.267987792409993
56000.0,8.267987816065922
56100.0,8.267987839350855
56200.0,8.267987862271132
56300.0,8.267987884832223
56400.0,8.267987907040112
56500.0,8.267987928899728
56600.0,8.26798795041671
56700.0,8.267987971595925
56800.0,8.267987992442983
56900.0,8.267988012963567
57000.0,8.267988033162569
57100.0,8.267988053045347
57200.0,8.267988072616317
57300.0,8.267988091880527
57400.0,8.267988110842332
57500.0,8.267988129506756
57600.0,8.267988147878887
57700.0,8.267988165963105
57800.0,8.267988183764208
57900.0,8.267988201286146
58000.0,8.267988218533443
58100.0,8.267988235509995
58200.0,8.2679882522203
58300.0,8.267988268668917
58400.0,8.267988284859763
58500.0,8.267988300797134
58600.0,8.26798831648457
58700.0,8.26798833192612
58800.0,8.26798834712527
58900.0,8.26798836208605
59000.0,8.26798837681254
59100.0,8.267988391308245
59200.0,8.267988405577015
59300.0,8.267988419622016
59400.0,8.267988433446874
59500.0,8.267988447054712
59600.0,8.267988460449137
59700.0,8.267988473633798
59800.0,8.26798848661184
59900.0,8.267988499386707
60000.0,8.267988511961233
60100.0,8.267988524338662
60200.0,8.267988536521795
60300.0,8.267988548513857
60400.0,8.267988560318118
60500.0,8.267988571937392
60600.0,8.267988583374763
60700.0,8.267988594632767
60800.0,8.267988605714311
60900.0,8.267988616621901
61000.0,8.267988627358426
61100.0,8.26798863792681
61200.0,8.267988648329576
61300.0,8.267988658569482
61400.0,8.267988668648803
61500.0,8.267988678570138
61600.0,8.26798868833573
61700.0,8.267988697948168
61800.0,8.267988707410069
61900.0,8.267988716723693
62000.0,8.267988725891508
62100.0,8.26798873491555
62200.0,8.267988743798146
62300.0,8.267988752541305
62400.0,8.267988761147345
62500.0,8.26798876961861
62600.0,8.26798877795712
62700.0,8.267988786165088
62800.0,8.267988794244335
62900.0,8.267988802196946
63000.0,8.26798881002472
63100.0,8.267988817729728
63200.0,8.267988825314074
63300.0,8.267988832779563
63400.0,8.267988840128178
63500.0,8.267988847361549
63600.0,8.267988854481542
63700.0,8.267988861489767
63800.0,8.26798886838808
63900.0,8.267988875178364
64000.0,8.267988881862236
64100.0,8.267988888441469
64200.0,8.267988894917524
64300.0,8.267988901292073
64400.0,8.267988907566554
64500.0,8.267988913742633
64600.0,8.26798891982199
64700.0,8.267988925806078
64800.0,8.267988931696483
64900.0,8.267988937494511
65000.0,8.267988943201662
65100.0,8.26798894881922
65200.0,8.267988954348679
65300.0,8.267988959791543
65400.0,8.267988965149112
65500.0,8.267988970422806
65600.0,8.267988975613795
65700.0,8.26798898072342
65800.0,8.267988985752835
65900.0,8.267988990703374
66000.0,8.267988995576385
66100.0,8.26798900037303
66200.0,8.26798900509458
66300.0,8.267989009742088
66400.0,8.267989014316749
66500.0,8.267989018819597
66600.0,8.267989023251827
66700.0,8.267989027614645
66800.0,8.267989031909094
66900.0,8.267989036136312
67000.0,8.267989040297236
67100.0,8.26798904439294
67200.0,8.267989048424353
67300.0,8.267989052392538
67400.0,8.267989056298582
67500.0,8.267989060143412
67600.0,8.26798906392805
67700.0,8.267989067653335
67800.0,8.267989071320232
67900.0,8.267989074929565
68000.0,8.267989078482293
68100.0,8.267989081979382
68200.0,8.26798908542167
68300.0,8.267989088810065
68400.0,8.267989092145323
68500.0,8.267989095428304
68600.0,8.267989098659749
68700.0,8.267989101840515
68800.0,8.26798910497147
68900.0,8.267989108053358
69000.0,8.267989111086997
69100.0,8.267989114068747
69200.0,8.26798911699893
69300.0,8.26798911987894
69400.0,8.267989122713331
69500.0,8.267989125503401
69600.0,8.267989128249933
69700.0,8.267989130953621
69800.0,8.267989133615139
69900.0,8.26798913623514
70000.0,8.267989138814274
70100.0,8.267989141353178
70200.0,8.267989143852482
70300.0,8.2679891463128
70400.0,8.267989148734742
70500.0,8.267989151118906
70600.0,8.267989153465882
70700.0,8.26798915577625
70800.0,8.26798915805058
70900.0,8.267989160289437
71000.0,8.26798916249337
71100.0,8.267989164662927
71200.0,8.26798916679864
71300.0,8.267989168901044
71400.0,8.267989170970651
71500.0,8.267989173007978
71600.0,8.267989175013525
71700.0,8.267989176987792
71800.0,8.267989178931263
71900.0,8.267989180844419
72000.0,8.267989182727733
72100.0,8.26798918458167
72200.0,8.267989186406691
72300.0,8.267989188203245
72400.0,8.267989189971775
72500.0,8.26798919171272
72600.0,8.26798919342651
72700.0,8.267989195113568
72800.0,8.26798919677431
72900.0,8.267989198409149
73000.0,8.267989200018487
73100.0,8.267989201602722
73200.0,8.267989203162246
73300.0,8.267989204697445
73400.0,8.267989206208698
73500.0,8.267989207696377
73600.0,8.267989209160852
73700.0,8.267989210602485
73800.0,8.26798921202163
73900.0,8.26798921341864
74000.0,8.267989214793857
74100.0,8.267989216147626
74200.0,8.267989217480277
74300.0,8.267989218792142
74400.0,8.267989220083544
74500.0,8.267989221354803
74600.0,8.267989222606232
74700.0,8.267989223838141
74800.0,8.267989225050835
74900.0,8.267989226244614
75000.0,8.267989227419772
75100.0,8.2679892285766
75200.0,8.267989229715381
75300.0,8.267989230836402
75400.0,8.267989231939938
75500.0,8.267989233026258
75600.0,8.267989234095635
75700.0,8.267989235148331
75800.0,8.267989236184608
75900.0,8.26798923720472
76000.0,8.267989238208921
76100.0,8.267989239197458
76200.0,8.267989240170577
76300.0,8.267989241128515
76400.0,8.267989242071513
76500.0,8.2679892429998
76600.0,8.26798924391361
76700.0,8.267989244813164
76800.0,8.267989245698688
76900.0,8.267989246570398
77000.0,8.267989247428511
77100.0,8.267989248273242
77200.0,8.267989249104794
77300.0,8.267989249923376
77400.0,8.26798925072919
77500.0,8.267989251522435
77600.0,8.267989252303307
