M.L_b.CO3 Time [a],M.L_b.CO3 CO3 [mol/kg]
0.0,0.0002369866188887458
0.08333333333333333,0.00023698662157108078
0.16666666666666666,0.00023698662413325187
0.25,0.0002369866223632125
0.3333333333333333,0.00023698661360420392
0.41666666666666663,0.00023698659402449445
0.5,0.00023698656434459936
0.5833333333333333,0.00023698652139711205
0.6666666666666666,0.00023698646262416964
0.75,0.00023698638614569329
0.8333333333333333,0.00023698629054832957
0.9166666666666666,0.00023698617476224437
1.0,0.00023698603800400227
1.0833333333333333,0.0002369858797436424
1.1666666666666665,0.00023698569967833333
1.25,0.00023698549770797783
1.3333333333333333,0.000236985273912084
1.4166666666666665,0.00023698502852795866
1.5,0.0002369847619302843
1.5833333333333333,0.00023698447461209312
1.6666666666666665,0.00023698416715032836
1.75,0.00023698384025041617
1.8333333333333333,0.00023698349457276728
1.9166666666666665,0.00023698313093926398
2.0,0.00023698275023152933
2.083333333333333,0.00023698235334762398
2.1666666666666665,0.00023698194119293583
2.25,0.00023698151468035648
2.333333333333333,0.00023698107472697224
2.4166666666666665,0.0002369806222472567
2.5,0.00023698015814585326
2.583333333333333,0.000236979683311516
2.6666666666666665,0.00023697919861227022
2.75,0.00023697870489143273
2.833333333333333,0.00023697820296426163
2.9166666666666665,0.00023697769361516246
3.0,0.00023697717759543278
3.083333333333333,0.00023697665562151448
3.1666666666666665,0.00023697612837371228
3.25,0.00023697559649532977
3.333333333333333,0.00023697506059217968
3.4166666666666665,0.00023697452123242664
3.5,0.0002369739789467258
3.583333333333333,0.0002369734342286218
3.6666666666666665,0.0002369728875351746
3.75,0.0002369723392877815
3.833333333333333,0.00023697178987316597
3.9166666666666665,0.00023697123964450795
4.0,0.00023697068892268873
4.083333333333333,0.00023697013799762995
4.166666666666666,0.0002369695871297054
4.25,0.0002369690365512061
4.333333333333333,0.00023696848647249258
4.416666666666666,0.00023696793706545505
4.5,0.00023696738850397772
4.583333333333333,0.00023696684098133816
4.666666666666666,0.00023696629452640312
4.75,0.0002369657495403807
4.833333333333333,0.00023696520587967635
4.916666666666666,0.000236964663561803
5.0,0.00023696412261806153
5.083333333333333,0.0002369635830719581
5.166666666666666,0.00023696304493688053
5.25,0.00023696250821667863
5.333333333333333,0.00023696197290663912
5.416666666666666,0.0002369614389944694
5.5,0.00023696090646123226
5.583333333333333,0.00023696037528222032
5.666666666666666,0.00023695984542777314
5.75,0.00023695931686403506
5.833333333333333,0.0002369587895536561
5.916666666666666,0.00023695826345643812
6.0,0.0002369577385299272
6.083333333333333,0.0002369572147299544
6.166666666666666,0.00023695669201112763
6.25,0.0002369561703272762
6.333333333333333,0.00023695564963185
6.416666666666666,0.000236955129878277
6.5,0.00023695461102028027
6.583333333333333,0.0002369540930121571
6.666666666666666,0.00023695357580902273
6.75,0.00023695305936702131
6.833333333333333,0.0002369525436435057
6.916666666666666,0.00023695202859718914
7.0,0.00023695151418827066
7.083333333333333,0.00023695100037853515
7.166666666666666,0.0002369504871314332
7.25,0.00023694997441213933
7.333333333333333,0.00023694946218759212
7.416666666666666,0.00023694895042651858
7.5,0.00023694843909944255
7.583333333333333,0.0002369479281786812
7.666666666666666,0.00023694741763832867
7.75,0.0002369469074542304
7.833333333333333,0.00023694639760394787
7.916666666666666,0.0002369458880667161
8.0,0.00023694537882339463
8.083333333333332,0.00023694486985641254
8.166666666666666,0.00023694436114970994
8.25,0.00023694385268867502
8.333333333333332,0.00023694334446007872
8.416666666666666,0.00023694283645200775
8.5,0.0002369423286537956
8.583333333333332,0.00023694182105595376
8.666666666666666,0.00023694131365010175
8.75,0.00023694080642889864
8.833333333333332,0.00023694029938597442
8.916666666666666,0.00023693979251586278
9.0,0.00023693928581393584
9.083333333333332,0.00023693877927634003
9.166666666666666,0.0002369382728999341
9.25,0.00023693776668222953
9.333333333333332,0.0002369372606213331
9.416666666666666,0.0002369367547158919
9.5,0.00023693624896504127
9.583333333333332,0.00023693574336835436
9.666666666666666,0.0002369352379257958
9.75,0.00023693473263767671
9.833333333333332,0.00023693422750461346
9.916666666666666,0.00023693372252748794
10.0,0.00023693321770741198
10.083333333333332,0.00023693271304569232
10.166666666666666,0.0002369322085438003
10.25,0.00023693170420334243
10.333333333333332,0.00023693120002603343
10.416666666666666,0.00023693069601367253
10.5,0.00023693019216812112
10.583333333333332,0.0002369296884912823
10.666666666666666,0.00023692918498508344
10.75,0.00023692868165145928
10.833333333333332,0.000236928178492338
10.916666666666666,0.0002369276755096284
11.0,0.00023692717270520824
11.083333333333332,0.00023692667008091506
11.166666666666666,0.0002369261676385374
11.25,0.0002369256653798082
11.333333333333332,0.00023692516330639832
11.416666666666666,0.00023692466141991196
11.5,0.00023692415972188287
11.583333333333332,0.00023692365821377127
11.666666666666666,0.00023692315689696194
11.75,0.0002369226557727624
11.833333333333332,0.00023692215484240285
11.916666666666666,0.00023692165410703534
12.0,0.00023692115356773477
12.083333333333332,0.0002369206532254994
12.166666666666666,0.0002369201530812526
12.25,0.00023691965313584373
12.333333333333332,0.00023691915339005092
12.416666666666666,0.00023691865384458297
12.5,0.00023691815450008148
12.583333333333332,0.00023691765535712394
12.666666666666666,0.00023691715641622612
12.75,0.0002369166576778452
12.833333333333332,0.00023691615914238213
12.916666666666666,0.00023691566081018525
13.0,0.00023691516268155294
13.083333333333332,0.0002369146647567366
13.166666666666666,0.0002369141670359435
13.25,0.0002369136695193398
13.333333333333332,0.00023691317220705344
13.416666666666666,0.000236912675099177
13.5,0.00023691217819577014
13.583333333333332,0.00023691168149686238
13.666666666666666,0.0002369111850024555
13.75,0.00023691068871252628
13.833333333333332,0.00023691019262702843
13.916666666666666,0.000236909696745895
14.0,0.00023690920106904053
14.083333333333332,0.00023690870559636275
14.166666666666666,0.00023690821032774486
14.25,0.00023690771526305702
14.333333333333332,0.0002369072204021578
14.416666666666666,0.00023690672574489628
14.5,0.00023690623129111283
14.583333333333332,0.00023690573704064112
14.666666666666666,0.00023690524299330854
14.75,0.00023690474914893784
14.833333333333332,0.00023690425550734837
14.916666666666666,0.00023690376206835634
15.0,0.00023690326883177613
15.083333333333332,0.00023690277579742095
15.166666666666666,0.00023690228296510343
15.25,0.00023690179033463647
15.333333333333332,0.0002369012979058334
15.416666666666666,0.00023690080567850892
15.5,0.0002369003136524792
15.583333333333332,0.00023689982182756208
15.666666666666666,0.00023689933020357783
15.75,0.0002368988387803493
15.833333333333332,0.00023689834755770167
15.916666666666666,0.00023689785653546313
16.0,0.00023689736571346485
16.083333333333332,0.00023689687509154093
16.166666666666664,0.00023689638465660383
16.25,0.00023689589443101814
16.333333333333332,0.000236895404366985
16.416666666666664,0.0002368949144986919
16.5,0.00023689442482133124
16.583333333333332,0.000236893935388163
16.666666666666664,0.0002368934461610432
16.75,0.00023689295712102588
16.833333333333332,0.0002368924682894911
16.916666666666664,0.00023689197961872742
17.0,0.00023689149114273798
17.083333333333332,0.0002368910028567549
17.166666666666664,0.00023689051481380654
17.25,0.00023689002697595214
17.333333333333332,0.00023688953932434953
17.416666666666664,0.00023688905188029786
17.5,0.0002368885645963087
17.583333333333332,0.0002368880775062482
17.666666666666664,0.00023688759060538236
17.75,0.00023688710394653063
17.833333333333332,0.00023688661749192669
17.916666666666664,0.00023688613122281618
18.0,0.00023688564516042304
18.083333333333332,0.00023688515925745528
18.166666666666664,0.00023688467354765318
18.25,0.00023688418802630948
18.333333333333332,0.00023688370274604925
18.416666666666664,0.0002368832176692599
18.5,0.00023688273277726443
18.583333333333332,0.0002368822480912127
18.666666666666664,0.0002368817635639926
18.75,0.000236881279229224
18.833333333333332,0.000236880795082221
18.916666666666664,0.00023688031117542153
19.0,0.00023687982747135392
19.083333333333332,0.00023687934395141117
19.166666666666664,0.00023687886063666989
19.25,0.0002368783774801881
19.333333333333332,0.00023687789451546732
19.416666666666664,0.0002368774117378399
19.5,0.0002368769291995591
19.583333333333332,0.00023687644686328725
19.666666666666664,0.00023687596471048394
19.75,0.00023687548276215192
19.833333333333332,0.00023687500097151513
19.916666666666664,0.00023687451937195734
20.0,0.00023687403795882704
20.083333333333332,0.00023687355678419307
20.166666666666664,0.0002368730758108491
20.25,0.00023687259502032002
20.333333333333332,0.00023687211443353367
20.416666666666664,0.00023687163400387955
20.5,0.00023687115376462244
20.583333333333332,0.00023687067371112712
20.666666666666664,0.0002368701938952765
20.75,0.00023686971427999543
20.833333333333332,0.00023686923484687378
20.916666666666664,0.0002368687556167644
21.0,0.00023686827654322213
21.083333333333332,0.00023686779765939275
21.166666666666664,0.00023686731896065664
21.25,0.00023686684049871034
21.333333333333332,0.00023686636223661054
21.416666666666664,0.0002368658841560123
21.5,0.0002368654062776928
21.583333333333332,0.0002368649285553735
21.666666666666664,0.0002368644510220802
21.75,0.00023686397367320966
21.833333333333332,0.00023686349656027144
21.916666666666664,0.00023686301964645438
22.0,0.0002368625429134793
22.083333333333332,0.00023686206638204782
22.166666666666664,0.0002368615900060483
22.25,0.0002368611138183871
22.333333333333332,0.00023686063781447686
22.416666666666664,0.0002368601620456404
22.5,0.00023685968647519937
22.583333333333332,0.00023685921108494032
22.666666666666664,0.00023685873589548967
22.75,0.00023685826086090273
22.833333333333332,0.00023685778601396646
22.916666666666664,0.00023685731135010985
23.0,0.00023685683692046907
23.083333333333332,0.00023685636268849864
23.166666666666664,0.00023685588863605123
23.25,0.00023685541478367806
23.333333333333332,0.00023685494108560145
23.416666666666664,0.00023685446757448902
23.5,0.00023685399424578648
23.583333333333332,0.00023685352115044385
23.666666666666664,0.00023685304825204833
23.75,0.00023685257553251863
23.833333333333332,0.00023685210301233113
23.916666666666664,0.0002368516306458747
24.0,0.0002368511584656982
24.083333333333332,0.00023685068646726385
24.166666666666664,0.00023685021470133626
24.25,0.00023684974313163513
24.333333333333332,0.0002368492717401449
24.416666666666664,0.00023684880054726745
24.5,0.0002368483295075577
24.583333333333332,0.00023684785865344616
24.666666666666664,0.00023684738798041154
24.75,0.00023684691753903393
24.833333333333332,0.00023684644729316488
24.916666666666664,0.00023684597722485433
25.0,0.00023684550735443018
25.083333333333332,0.00023684503763661248
25.166666666666664,0.00023684456810371405
25.25,0.00023684409875123015
25.333333333333332,0.00023684362962955678
25.416666666666664,0.00023684316070267703
25.5,0.00023684269195270606
25.583333333333332,0.00023684222339989802
25.666666666666664,0.0002368417549991375
25.75,0.0002368412867826201
25.833333333333332,0.00023684081874585718
25.916666666666664,0.0002368403509390621
26.0,0.0002368398833263485
26.083333333333332,0.0002368394158898966
26.166666666666664,0.000236838948649887
26.25,0.0002368384815613684
26.333333333333332,0.00023683801465641943
26.416666666666664,0.00023683754793056788
26.5,0.00023683708143384442
26.583333333333332,0.00023683661513049323
26.666666666666664,0.00023683614900275928
26.75,0.00023683568307074994
26.833333333333332,0.00023683521728967716
26.916666666666664,0.0002368347516915032
27.0,0.0002368342862717722
27.083333333333332,0.00023683382108033297
27.166666666666664,0.00023683335608155957
27.25,0.00023683289125776147
27.333333333333332,0.00023683242662897303
27.416666666666664,0.00023683196215056892
27.5,0.00023683149785439541
27.583333333333332,0.00023683103373601277
27.666666666666664,0.00023683056984508892
27.75,0.00023683010614612712
27.833333333333332,0.0002368296426215011
27.916666666666664,0.00023682917929117254
28.0,0.00023682871611067818
28.083333333333332,0.00023682825311174878
28.166666666666664,0.00023682779028996064
28.25,0.00023682732769480136
28.333333333333332,0.00023682686529090312
28.416666666666664,0.00023682640306070375
28.5,0.00023682594102409217
28.583333333333332,0.0002368254791367668
28.666666666666664,0.00023682501743034324
28.75,0.00023682455590041398
28.833333333333332,0.00023682409459628673
28.916666666666664,0.0002368236334827221
29.0,0.00023682317254222158
29.083333333333332,0.00023682271179460208
29.166666666666664,0.00023682225119572286
29.25,0.00023682179077708473
29.333333333333332,0.0002368213305342963
29.416666666666664,0.00023682087051648615
29.5,0.00023682041068854282
29.583333333333332,0.00023681995103303142
29.666666666666664,0.00023681949156969685
29.75,0.00023681903225455865
29.833333333333332,0.00023681857311900348
29.916666666666664,0.00023681811415865564
30.0,0.00023681765542246552
30.083333333333332,0.0002368171968754491
30.166666666666664,0.0002368167385002347
30.25,0.00023681628031649565
30.333333333333332,0.00023681582228041105
30.416666666666664,0.0002368153644232538
30.5,0.00023681490674066404
30.583333333333332,0.00023681444928141455
30.666666666666664,0.00023681399201064818
30.75,0.0002368135349110562
30.833333333333332,0.0002368130780022406
30.916666666666664,0.00023681262124053981
31.0,0.00023681216465711304
31.083333333333332,0.00023681170824761642
31.166666666666664,0.00023681125206064557
31.25,0.0002368107960614699
31.333333333333332,0.00023681034023284345
31.416666666666664,0.00023680988459429722
31.5,0.00023680942910232785
31.583333333333332,0.0002368089737879818
31.666666666666664,0.00023680851864693085
31.75,0.00023680806372759436
31.833333333333332,0.00023680760899536763
31.916666666666664,0.0002368071544330672
32.0,0.0002368067000601534
32.08333333333333,0.00023680624583328092
32.166666666666664,0.00023680579177204542
32.25,0.00023680533788714262
32.33333333333333,0.00023680488418190656
32.416666666666664,0.0002368044306568811
32.5,0.00023680397731195058
32.58333333333333,0.00023680352414694877
32.666666666666664,0.00023680307116174994
32.75,0.00023680261835625331
32.83333333333333,0.0002368021657303665
32.916666666666664,0.000236801713283999
33.0,0.00023680126101705985
33.08333333333333,0.00023680080892945777
33.166666666666664,0.00023680035702110144
33.25,0.00023679990529189914
33.33333333333333,0.0002367994537417589
33.416666666666664,0.0002367990023705892
33.5,0.00023679855117829772
33.58333333333333,0.00023679810016479235
33.666666666666664,0.0002367976493299808
33.75,0.0002367971986737706
33.83333333333333,0.00023679674819606947
33.916666666666664,0.00023679629789678477
34.0,0.00023679584777582392
34.08333333333333,0.0002367953978330943
34.166666666666664,0.0002367949480685031
34.25,0.00023679449848195764
34.33333333333333,0.00023679404907336502
34.416666666666664,0.00023679359984263269
34.5,0.00023679315078966752
34.58333333333333,0.00023679270191437693
34.666666666666664,0.00023679225321666803
34.75,0.00023679180469644802
34.83333333333333,0.00023679135635362394
34.916666666666664,0.0002367909081881032
35.0,0.000236790460199793
35.08333333333333,0.00023679001238860052
35.166666666666664,0.00023678956475443313
35.25,0.00023678911729719808
35.33333333333333,0.00023678867001680287
35.416666666666664,0.00023678822291315474
35.5,0.00023678777598616125
35.58333333333333,0.00023678732923572993
35.666666666666664,0.0002367868826617683
35.75,0.00023678643626418394
35.83333333333333,0.0002367859900428845
35.916666666666664,0.00023678554399777764
36.0,0.0002367850981287713
36.08333333333333,0.00023678465243577322
36.166666666666664,0.00023678420691869136
36.25,0.00023678376157743362
36.33333333333333,0.00023678331641190795
36.416666666666664,0.00023678287142202246
36.5,0.00023678242660768537
36.58333333333333,0.0002367819819688048
36.666666666666664,0.00023678153750528917
36.75,0.00023678109321704653
36.83333333333333,0.0002367806491039855
36.916666666666664,0.00023678020516601438
37.0,0.00023677976140304172
37.08333333333333,0.0002367793178149761
37.166666666666664,0.0002367788744017261
37.25,0.00023677843116320048
37.33333333333333,0.00023677798809930791
37.416666666666664,0.0002367775452099572
37.5,0.0002367771024950739
37.58333333333333,0.00023677665995477156
37.666666666666664,0.00023677621758921185
37.75,0.00023677577539852915
37.83333333333333,0.00023677533338281825
37.916666666666664,0.00023677489154341023
38.0,0.00023677444993445103
38.08333333333333,0.00023677400849799282
38.166666666666664,0.00023677356723559619
38.25,0.00023677312614735007
38.33333333333333,0.00023677268523311708
38.416666666666664,0.0002367722444927295
38.5,0.00023677180392601968
38.58333333333333,0.00023677136353282536
38.666666666666664,0.00023677092331299008
38.75,0.00023677048326636358
38.83333333333333,0.00023677004339280129
38.916666666666664,0.00023676960369216427
39.0,0.00023676916416431917
39.08333333333333,0.00023676872480913697
39.166666666666664,0.000236768285626494
39.25,0.00023676784661627056
39.33333333333333,0.0002367674077783512
39.416666666666664,0.00023676696911262401
39.5,0.0002367665306189807
39.58333333333333,0.000236766092297316
39.666666666666664,0.00023676565414752754
39.75,0.00023676521616951542
39.83333333333333,0.00023676477836318246
39.916666666666664,0.0002367643407284332
40.0,0.00023676390326517432
40.08333333333333,0.000236763465973314
40.166666666666664,0.00023676302885276214
40.25,0.0002367625919034298
40.33333333333333,0.00023676215512522905
40.416666666666664,0.00023676171851807335
40.5,0.00023676128208187673
40.58333333333333,0.00023676084581655395
40.666666666666664,0.00023676040972202034
40.75,0.000236759973798192
40.83333333333333,0.00023675953804498515
40.916666666666664,0.0002367591024623162
41.0,0.0002367586670501023
41.08333333333333,0.0002367582318082601
41.166666666666664,0.00023675779673670687
41.25,0.0002367573618353596
41.33333333333333,0.00023675692710413545
41.416666666666664,0.0002367564925429515
41.5,0.00023675605815172467
41.58333333333333,0.00023675562393037178
41.666666666666664,0.00023675518987880957
41.75,0.00023675475599695456
41.83333333333333,0.0002367543222847231
41.916666666666664,0.00023675388874203133
42.0,0.00023675345536879533
42.08333333333333,0.00023675302216493075
42.166666666666664,0.00023675258913035305
42.25,0.00023675215626497786
42.33333333333333,0.00023675172356872
42.416666666666664,0.00023675129104149453
42.5,0.00023675085868321628
42.58333333333333,0.00023675042649379957
42.666666666666664,0.00023674999447315893
42.75,0.00023674956262120832
42.83333333333333,0.00023674913093786197
42.916666666666664,0.0002367486994230335
43.0,0.00023674826807663677
43.08333333333333,0.00023674783689858514
43.166666666666664,0.00023674740588879224
43.25,0.00023674697504717123
43.33333333333333,0.00023674654437363544
43.416666666666664,0.00023674611386809784
43.5,0.00023674568353047152
43.58333333333333,0.00023674525336066948
43.666666666666664,0.00023674482335860446
43.75,0.0002367443935241894
43.83333333333333,0.00023674396385733716
43.916666666666664,0.00023674353435796037
44.0,0.0002367431050259719
44.08333333333333,0.00023674267586128436
44.166666666666664,0.00023674224686381047
44.25,0.00023674181803346294
44.33333333333333,0.00023674138937015453
44.416666666666664,0.00023674096087379791
44.5,0.00023674053254430587
44.58333333333333,0.0002367401043815912
44.666666666666664,0.00023673967638556656
44.75,0.00023673924855614488
44.83333333333333,0.00023673882089323905
44.916666666666664,0.00023673839339676182
