M.L_b.pH Time [a],M.L_b.pH pH [mol/kg]
0.0,8.258668998920138
10.0,8.257252819711278
20.0,8.25745612015743
30.0,8.257704852291592
40.0,8.257981292656742
50.0,8.25827377000663
60.0,8.258573559012392
70.0,8.25887440512255
80.0,8.259171652719333
90.0,8.259462125395938
100.0,8.259743637236802
110.0,8.260014906776622
120.0,8.26027508206801
130.0,8.260523758142911
140.0,8.260760797815246
150.0,8.260986278820143
160.0,8.261200403020041
170.0,8.26140349917614
180.0,8.261595950857313
190.0,8.261778186208149
200.0,8.261950659857177
210.0,8.262113837537763
220.0,8.262268186126848
230.0,8.262414161886936
240.0,8.26255220870557
250.0,8.262682756399565
260.0,8.262806211226218
270.0,8.262922960713267
280.0,8.263033382627116
290.0,8.263137845699745
300.0,8.263236699049925
310.0,8.263330267508486
320.0,8.263418854702572
330.0,8.263502747247088
340.0,8.263582217117861
350.0,8.263657522713132
360.0,8.263728906815533
370.0,8.263796600147897
380.0,8.26386081873317
390.0,8.26392176325798
400.0,8.263979615204807
410.0,8.264034548765075
420.0,8.264086733258877
430.0,8.264136333764467
440.0,8.26418350579308
450.0,8.26422839408385
460.0,8.264271133572294
470.0,8.264311850872849
480.0,8.264350665161292
490.0,8.264387688731487
500.0,8.264423027353997
510.0,8.264456780551123
520.0,8.264489042131887
530.0,8.264519899733012
540.0,8.26454943650306
550.0,8.264577726959772
560.0,8.264604834062727
570.0,8.264630818032524
580.0,8.264655743872158
590.0,8.264679676856382
600.0,8.264702678452334
610.0,8.264724803914472
620.0,8.26474609251202
630.0,8.264766591336778
640.0,8.26478634345961
650.0,8.26480539271359
660.0,8.264823781229028
670.0,8.264841546333923
680.0,8.264858727995172
690.0,8.26487535724162
700.0,8.26489146885088
710.0,8.264907092231681
720.0,8.264922239552888
730.0,8.26493692569231
740.0,8.264951169503982
750.0,8.264964997480341
760.0,8.264978433842886
770.0,8.26499150511194
780.0,8.265004234793615
790.0,8.265016643655123
800.0,8.26502874708536
810.0,8.265040553857975
820.0,8.265052075155584
830.0,8.26506332664051
840.0,8.265074326460589
850.0,8.265085089933805
860.0,8.265095631300037
870.0,8.265105963787251
880.0,8.265116099024059
890.0,8.26512604940888
900.0,8.265135820856054
910.0,8.265145414977125
920.0,8.265154835510044
930.0,8.265164085787815
940.0,8.265173168005806
950.0,8.26518208817766
960.0,8.265190855739784
970.0,8.265199480800929
980.0,8.265207972937915
990.0,8.265216335130102
1000.0,8.265224566554343
1010.0,8.265232670471576
1020.0,8.265240653900296
1030.0,8.265248524418922
1040.0,8.26525629027044
1050.0,8.265263958937389
1060.0,8.265271535867043
1070.0,8.265279026873344
1080.0,8.26528643631293
1090.0,8.265293765262825
1100.0,8.265301008206874
1110.0,8.265308162946415
1120.0,8.265315233520598
1130.0,8.2653222266196
1140.0,8.265329148581957
1150.0,8.26533600397035
1160.0,8.265342796812185
1170.0,8.265349530740211
1180.0,8.265356208880418
1190.0,8.265362834516274
1200.0,8.265369406383355
1210.0,8.265375917918478
1220.0,8.265382365063815
1230.0,8.26538874937013
1240.0,8.265395053529165
1250.0,8.265401277784648
1260.0,8.265407437664836
1270.0,8.265413543375894
1280.0,8.265419590351724
1290.0,8.265425595471232
1300.0,8.265431549396594
1310.0,8.26543744823566
1320.0,8.265443275426703
1330.0,8.265449044744127
1340.0,8.265454766163097
1350.0,8.265460435732768
1360.0,8.265466068296934
1370.0,8.265471660684033
1380.0,8.265477212595448
1390.0,8.26548272563473
1400.0,8.26548820192808
1410.0,8.265493643544165
1420.0,8.26549905111235
1430.0,8.265504413009785
1440.0,8.265509730318271
1450.0,8.265514993715271
1460.0,8.265520214842692
1470.0,8.265525401120806
1480.0,8.26553054957955
1490.0,8.265535670934181
1500.0,8.265540762683184
1510.0,8.265545824446306
1520.0,8.265550857278066
1530.0,8.265555862644494
1540.0,8.265560841986495
1550.0,8.265565796580209
1560.0,8.265570727359613
1570.0,8.265575635239037
1580.0,8.26558052117574
1590.0,8.26558538611166
1600.0,8.265590230937951
1610.0,8.265595056482256
1620.0,8.265599859885361
1630.0,8.265604634623797
1640.0,8.265609368885093
1650.0,8.265614069565029
1660.0,8.265618742426842
1670.0,8.265623385297983
1680.0,8.265628006867212
1690.0,8.2656326054749
1700.0,8.265637180825081
1710.0,8.26564173369668
1720.0,8.26564626523676
1730.0,8.26565077658773
1740.0,8.265655268782924
1750.0,8.265659742739444
1760.0,8.265664198029036
1770.0,8.265668626123876
1780.0,8.265673018865009
1790.0,8.265677380251738
1800.0,8.265681705340892
1810.0,8.265686002604824
1820.0,8.265690277061337
1830.0,8.265694526744891
1840.0,8.2656987584245
1850.0,8.265702970434878
1860.0,8.26570716256205
1870.0,8.265711335498631
1880.0,8.265715490179124
1890.0,8.265719627505431
1900.0,8.26572374828585
1910.0,8.265727849854711
1920.0,8.265731925306158
1930.0,8.265735963378015
1940.0,8.265739970418032
1950.0,8.26574395183637
1960.0,8.265747905746391
1970.0,8.2657518401922
1980.0,8.265755753759823
1990.0,8.26575964643861
2000.0,8.265763517594737
2010.0,8.26576735540037
2020.0,8.265771158785606
2030.0,8.265774920402306
2040.0,8.265778649644403
2050.0,8.265782352500063
2060.0,8.265786027023447
2070.0,8.265789681445183
2080.0,8.265793314237886
2090.0,8.265796924727537
2100.0,8.26580051013533
2110.0,8.26580407656391
2120.0,8.265807625308193
2130.0,8.26581115889684
2140.0,8.265814676562734
2150.0,8.26581818100207
2160.0,8.265821671122485
2170.0,8.26582514694354
2180.0,8.265828608925077
2190.0,8.265832057611286
2200.0,8.265835493521966
2210.0,8.265838917136268
2220.0,8.265842328872736
2230.0,8.265845729177462
2240.0,8.26584911839582
2250.0,8.265852496915318
2260.0,8.265855865108916
2270.0,8.265859223243229
2280.0,8.26586257204589
2290.0,8.265865911803754
2300.0,8.26586924063424
2310.0,8.265872560424722
2320.0,8.265875871801079
2330.0,8.265879175996467
2340.0,8.265882471641868
2350.0,8.265885760879131
2360.0,8.265889042886462
2370.0,8.26589231741317
2380.0,8.26589558450454
2390.0,8.26589884429258
2400.0,8.265902096918484
2410.0,8.265905342515126
2420.0,8.265908581206299
2430.0,8.265911813108252
2440.0,8.26591503833071
2450.0,8.265918256964946
2460.0,8.265921469230653
2470.0,8.26592467554621
2480.0,8.265927875003007
2490.0,8.265931067679103
2500.0,8.265934254527954
2510.0,8.265937436097948
2520.0,8.265940611556996
2530.0,8.265943782399425
2540.0,8.265946947997053
2550.0,8.265950108025244
2560.0,8.265953262180734
2570.0,8.265956409800802
2580.0,8.265959551619138
2590.0,8.265962686298858
2600.0,8.265965815017186
2610.0,8.265968938519936
2620.0,8.265972056042225
2630.0,8.265975169064951
2640.0,8.265978277004598
2650.0,8.265981379725465
2660.0,8.265984477296808
2670.0,8.265987569362471
2680.0,8.265990656971564
2690.0,8.265993739929254
2700.0,8.26599681875849
2710.0,8.265999892659421
2720.0,8.266002962610697
2730.0,8.266006028042144
2740.0,8.266009088630865
2750.0,8.266012144082799
2760.0,8.266015193626478
2770.0,8.26601823779678
2780.0,8.266021276064944
2790.0,8.266024309104129
2800.0,8.266027337678995
2810.0,8.266030361002155
2820.0,8.266033380169798
2830.0,8.26603639461915
2840.0,8.266039404156531
2850.0,8.266042409165106
2860.0,8.266045409458695
2870.0,8.266048405083358
2880.0,8.266051396577247
2890.0,8.266054383815858
2900.0,8.266057366934369
2910.0,8.266060346207926
2920.0,8.266063321609913
2930.0,8.266066292750688
2940.0,8.266069259481416
2950.0,8.266072221558861
2960.0,8.26607517854669
2970.0,8.266078129640766
2980.0,8.266081075524728
2990.0,8.266084016509122
3000.0,8.266086952893225
3010.0,8.266089885041024
3020.0,8.266092812984958
3030.0,8.266095736349257
3040.0,8.266098655018414
3050.0,8.266101569199593
3060.0,8.266104479039306
3070.0,8.26610738428864
3080.0,8.266110285726134
3090.0,8.266113183157358
3100.0,8.266116077017934
3110.0,8.266118966505326
3120.0,8.266121852573871
3130.0,8.26612473469528
3140.0,8.266127612641693
3150.0,8.266130486258815
3160.0,8.266133354692789
3170.0,8.266136218378715
3180.0,8.26613907657602
3190.0,8.266141929968084
3200.0,8.266144779272663
3210.0,8.266147623672772
3220.0,8.266150464304715
3230.0,8.26615330063586
3240.0,8.26615613246493
3250.0,8.266158959752806
3260.0,8.266161782643529
3270.0,8.266164600753434
3280.0,8.266167414065634
3290.0,8.266170223253305
3300.0,8.266173028376096
3310.0,8.266175829168295
3320.0,8.266178626532705
3330.0,8.266181420023743
3340.0,8.26618420936053
3350.0,8.266186994442604
3360.0,8.266189775244754
3370.0,8.266192551762266
3380.0,8.266195323993978
3390.0,8.266198091939136
3400.0,8.266200855597372
3410.0,8.266203614968903
3420.0,8.266206370054569
3430.0,8.26620912085577
3440.0,8.266211867374382
3450.0,8.266214609612692
3460.0,8.266217347564998
3470.0,8.266220080997034
3480.0,8.2662228095896
3490.0,8.266225533523704
3500.0,8.266228251611391
3510.0,8.266230964914104
3520.0,8.266233673777851
3530.0,8.266236378009523
3540.0,8.266239078611783
3550.0,8.266241775149275
3560.0,8.266244467359895
3570.0,8.266247155169756
3580.0,8.266249838580185
3590.0,8.266252518004366
3600.0,8.266255193695047
3610.0,8.2662578652126
3620.0,8.266260533100075
3630.0,8.266263197257889
3640.0,8.266265857667776
3650.0,8.266268514915014
3660.0,8.266271168691212
3670.0,8.26627381869975
3680.0,8.266276464820566
3690.0,8.26627910701202
3700.0,8.266281744987786
3710.0,8.26628437747407
3720.0,8.266287005343854
3730.0,8.266289628805463
3740.0,8.266292247973944
3750.0,8.266294863577158
3760.0,8.266297475330036
3770.0,8.26630008295674
3780.0,8.266302686374967
3790.0,8.266305285583215
3800.0,8.266307880599314
3810.0,8.266310471463436
3820.0,8.26631305810016
3830.0,8.266315640326656
3840.0,8.266318218605795
3850.0,8.266320793070877
3860.0,8.266323364050372
3870.0,8.266325930892982
3880.0,8.266328494587105
3890.0,8.266331054666693
3900.0,8.266333610903299
3910.0,8.266336163225665
3920.0,8.266338711618626
3930.0,8.266341256080137
3940.0,8.266343796609812
3950.0,8.26634633320737
3960.0,8.266348865872866
3970.0,8.266351394606893
3980.0,8.266353919410589
3990.0,8.26635644028557
4000.0,8.266358957233864
4010.0,8.266361470257845
4020.0,8.26636397936019
4030.0,8.266366484543841
4040.0,8.266368985811688
4050.0,8.266371483254808
4060.0,8.266373976064122
4070.0,8.26637646537659
4080.0,8.26637895111784
4090.0,8.266381433672745
4100.0,8.266383912448061
4110.0,8.266386388163792
4120.0,8.266388860379033
4130.0,8.266391328920855
4140.0,8.26639379374017
4150.0,8.26639625482453
4160.0,8.266398712168519
4170.0,8.266401165767533
4180.0,8.26640361561744
4190.0,8.266406061714886
4200.0,8.266408504057368
4210.0,8.266410942643187
4220.0,8.266413377471311
4230.0,8.266415808541302
4240.0,8.266418235853228
4250.0,8.266420659407599
4260.0,8.266423079205316
4270.0,8.266425495247637
4280.0,8.266427907536132
4290.0,8.266430316105248
4300.0,8.266432720874992
4310.0,8.26643512177389
4320.0,8.266437519083466
4330.0,8.266439912951274
4340.0,8.266442303632651
4350.0,8.266444690580244
4360.0,8.266447074672275
4370.0,8.266449455487473
4380.0,8.266451832807812
4390.0,8.266454206559946
4400.0,8.266456576723963
4410.0,8.266458943261203
4420.0,8.266461305921007
4430.0,8.266463664186805
4440.0,8.266466018505907
4450.0,8.26646836794527
4460.0,8.266470713298425
4470.0,8.26647305506084
4480.0,8.266475392701931
4490.0,8.266477727230843
4500.0,8.266480058223467
4510.0,8.266482385476976
4520.0,8.266484708943628
4530.0,8.266487028629959
4540.0,8.266489344551715
4550.0,8.2664916573017
4560.0,8.26649396666449
4570.0,8.266496272753734
4580.0,8.266498575822297
4590.0,8.266500876122382
4600.0,8.266503173037727
4610.0,8.266505467350083
4620.0,8.266507758643685
4630.0,8.266510046712865
4640.0,8.266512331480486
4650.0,8.266514612915682
4660.0,8.266516891000126
4670.0,8.266519165669623
4680.0,8.26652143624887
4690.0,8.266523703078748
4700.0,8.266525965328016
4710.0,8.266528223670036
4720.0,8.26653047865199
4730.0,8.266532729652056
4740.0,8.26653497766017
4750.0,8.266537222256241
4760.0,8.266539463261344
4770.0,8.266541700639083
4780.0,8.266543934398829
4790.0,8.2665461645573
4800.0,8.26654839112819
4810.0,8.26655061436654
4820.0,8.266552835025596
4830.0,8.26655505206243
4840.0,8.266557266287892
4850.0,8.26655947759127
4860.0,8.266561685936137
4870.0,8.266563891771883
4880.0,8.266566094842124
4890.0,8.266568294898924
4900.0,8.266570491835333
4910.0,8.266572685607969
4920.0,8.266574876193642
4930.0,8.266577063574974
4940.0,8.266579247512327
4950.0,8.266581427768902
4960.0,8.266583603406842
4970.0,8.266585775218909
4980.0,8.266587943392008
4990.0,8.266590108023705
5000.0,8.266592269712609
5010.0,8.266594428224241
5020.0,8.266596583330164
5030.0,8.266598734961846
5040.0,8.26660088311754
5050.0,8.266603027811579
5060.0,8.266605169058648
5070.0,8.266607306871274
5080.0,8.266609441275754
5090.0,8.266611573053483
5100.0,8.26661370157797
5110.0,8.26661582737347
5120.0,8.266617950442843
5130.0,8.266620071056318
5140.0,8.266622188664993
5150.0,8.266624303875494
5160.0,8.266626416309265
5170.0,8.266628525799295
5180.0,8.266630632283452
5190.0,8.266632735733825
5200.0,8.266634836131363
5210.0,8.266636933459875
5220.0,8.266639027198464
5230.0,8.266641117406039
5240.0,8.26664320353714
5250.0,8.266645286049517
5260.0,8.266647365488671
5270.0,8.266649441279629
5280.0,8.26665151424233
5290.0,8.266653583992454
5300.0,8.26665565039571
5310.0,8.266657713435563
5320.0,8.266659773127552
5330.0,8.266661829489944
5340.0,8.266663882538076
5350.0,8.266665932284699
5360.0,8.266667978739457
5370.0,8.266670022002085
5380.0,8.266672061951837
5390.0,8.266674098425066
5400.0,8.266676132059176
5410.0,8.266678162733129
5420.0,8.266680190785996
5430.0,8.266682215661437
5440.0,8.266684238040863
5450.0,8.266686257552331
5460.0,8.266688274044656
5470.0,8.266690287474912
5480.0,8.266692297833398
5490.0,8.26669430511702
5500.0,8.266696309323395
5510.0,8.266698310450394
5520.0,8.266700308496416
5530.0,8.266702303460468
5540.0,8.26670429534213
5550.0,8.266706284141476
5560.0,8.266708269858997
5570.0,8.266710252495546
5580.0,8.266712232052285
5590.0,8.26671420853065
5600.0,8.26671618193233
5610.0,8.266718152259218
5620.0,8.266720119513415
5630.0,8.266722083697202
5640.0,8.266724044813017
5650.0,8.266726002863454
5660.0,8.266727957850819
5670.0,8.266729909885262
5680.0,8.266731858431273
5690.0,8.266733804254596
5700.0,8.266735747361746
5710.0,8.266737687693052
5720.0,8.266739625216315
5730.0,8.26674156026112
5740.0,8.266743492282938
5750.0,8.26674542196282
5760.0,8.266747348946113
5770.0,8.266749273082949
5780.0,8.266751194328853
5790.0,8.266753112672616
5800.0,8.266755028109857
5810.0,8.266756940636967
5820.0,8.26675885025057
5830.0,8.266760756947795
5840.0,8.266762660726373
5850.0,8.266764561584623
5860.0,8.266766459521374
5870.0,8.266768354535916
5880.0,8.266770246627928
5890.0,8.266772135797448
5900.0,8.266774022044828
5910.0,8.266775905370709
5920.0,8.266777785775991
5930.0,8.266779663261817
5940.0,8.266781537829546
5950.0,8.266783409480745
5960.0,8.266785278217165
5970.0,8.266787144040732
5980.0,8.266789006877438
5990.0,8.266790866485227
6000.0,8.26679272231908
6010.0,8.266794574824285
6020.0,8.266796423497905
6030.0,8.266798268861875
6040.0,8.26680011142428
6050.0,8.266801950633598
6060.0,8.266803787286877
6070.0,8.266805621029627
6080.0,8.266807451731804
6090.0,8.26680927937614
6100.0,8.266811103978014
6110.0,8.266812925556682
6120.0,8.266814744129194
6130.0,8.266816559710396
6140.0,8.266818372311986
6150.0,8.266820182100501
6160.0,8.266821988981834
6170.0,8.266823792925308
6180.0,8.266825594286601
6190.0,8.266827393003533
6200.0,8.26682918917808
6210.0,8.266830982966516
6220.0,8.26683277437545
6230.0,8.26683456316784
6240.0,8.266836349256838
6250.0,8.266838132619112
6260.0,8.266839913249056
6270.0,8.26684169114436
6280.0,8.26684346630323
6290.0,8.26684523872429
6300.0,8.266847008406724
6310.0,8.266848775350281
6320.0,8.266850539555193
6330.0,8.26685230102211
6340.0,8.266854059752024
6350.0,8.266855815746213
6360.0,8.266857569006214
6370.0,8.266859319533772
6380.0,8.266861067330828
6390.0,8.266862812399486
6400.0,8.266864554742005
6410.0,8.266866294360781
6420.0,8.26686803125833
6430.0,8.266869765437278
6440.0,8.266871496900361
6450.0,8.266873225650405
6460.0,8.266874951690324
6470.0,8.266876675023113
6480.0,8.266878395651817
6490.0,8.266880113709274
6500.0,8.26688182929908
6510.0,8.266883542180313
6520.0,8.266885252694326
6530.0,8.266886960829941
6540.0,8.266888666483553
6550.0,8.266890370140262
6560.0,8.266892071500276
6570.0,8.26689377044544
6580.0,8.266895466234425
6590.0,8.266897159396452
6600.0,8.266898850050753
6610.0,8.266900538127244
6620.0,8.266902224142932
6630.0,8.266903907843254
6640.0,8.266905589059263
6650.0,8.266907267730096
6660.0,8.266908943840813
6670.0,8.266910617388909
6680.0,8.26691228837379
6690.0,8.26691395679483
6700.0,8.266915622651412
6710.0,8.266917285943126
6720.0,8.266918946669843
6730.0,8.26692060483171
6740.0,8.26692226042914
6750.0,8.26692391346278
6760.0,8.26692556393349
6770.0,8.266927211842336
6780.0,8.266928857190571
6790.0,8.26693049997961
6800.0,8.266932140211036
6810.0,8.266933777886578
6820.0,8.266935413008104
6830.0,8.266937045577585
6840.0,8.266938675649792
6850.0,8.266940303603842
6860.0,8.26694192867481
6870.0,8.2669435515767
6880.0,8.26694517223728
6890.0,8.266946790834579
6900.0,8.266948407192821
6910.0,8.26695002156464
6920.0,8.266951633477316
6930.0,8.266953242787425
6940.0,8.266954849491901
6950.0,8.266956453775384
6960.0,8.26695805588936
6970.0,8.266959655669524
6980.0,8.266961253396708
6990.0,8.266962848595492
7000.0,8.266964441135045
7010.0,8.266966031021626
7020.0,8.26696761845207
7030.0,8.266969203687085
7040.0,8.266970786564007
7050.0,8.266972367370625
7060.0,8.266973945631085
7070.0,8.266975521218589
7080.0,8.266977094142561
7090.0,8.26697866460373
7100.0,8.266980232865642
7110.0,8.266981798766812
7120.0,8.26698336259706
7130.0,8.26698492388201
7140.0,8.266986482497277
7150.0,8.266988038453864
7160.0,8.266989591953767
7170.0,8.26699114326103
7180.0,8.266992692215485
7190.0,8.266994239106946
7200.0,8.266995783463805
7210.0,8.266997325163597
7220.0,8.266998865156685
7230.0,8.26700040285834
7240.0,8.267001938141997
7250.0,8.267003471366477
7260.0,8.26700500247763
7270.0,8.26700653143185
7280.0,8.267008058625256
7290.0,8.26700958382845
7300.0,8.26701110688902
7310.0,8.267012627141428
7320.0,8.267014145062966
7330.0,8.267015660726589
7340.0,8.267017174126204
7350.0,8.267018685691568
7360.0,8.26702019519774
7370.0,8.267021702498907
7380.0,8.267023206927059
7390.0,8.267024708981543
7400.0,8.267026208736114
7410.0,8.26702770576494
7420.0,8.26702920001965
7430.0,8.267030691546676
7440.0,8.26703218040591
7450.0,8.267033666632473
7460.0,8.267035150754188
7470.0,8.26703663255218
7480.0,8.267038111883137
7490.0,8.267039588712157
7500.0,8.26704106304895
7510.0,8.267042534912903
7520.0,8.267044004322397
7530.0,8.267045471293265
7540.0,8.267046935839316
7550.0,8.267048397972914
7560.0,8.26704985770535
7570.0,8.26705131504706
7580.0,8.267052770007792
7590.0,8.267054222596702
7600.0,8.267055672822446
7610.0,8.267057120693242
7620.0,8.267058566554558
7630.0,8.267060010665013
7640.0,8.267061453218965
7650.0,8.26706289417077
7660.0,8.267064333425155
7670.0,8.267065770912994
7680.0,8.267067206794726
7690.0,8.267068640690466
7700.0,8.26707007304615
7710.0,8.267071503388738
7720.0,8.267072931827578
7730.0,8.26707435792893
7740.0,8.267075781972247
7750.0,8.267077204224327
7760.0,8.26707862430502
7770.0,8.267080042726795
7780.0,8.267081459003364
7790.0,8.26708287327334
7800.0,8.267084285096761
7810.0,8.26708569478224
7820.0,8.26708710221273
7830.0,8.267088507095139
7840.0,8.267089909411963
7850.0,8.267091309208814
7860.0,8.267092706817788
7870.0,8.267094101820298
7880.0,8.267095494870143
7890.0,8.26709688570249
7900.0,8.267098274216375
7910.0,8.267099660400543
7920.0,8.26710104427031
7930.0,8.267102425843726
7940.0,8.267103805136356
7950.0,8.267105182161336
7960.0,8.267106556930093
7970.0,8.267107929452884
7980.0,8.26710929973907
7990.0,8.267110667797317
8000.0,8.267112033635712
8010.0,8.267113397261868
8020.0,8.267114758682993
8030.0,8.267116117905955
8040.0,8.267117474957052
8050.0,8.267118830532729
8060.0,8.267120184581971
8070.0,8.267121537172734
8080.0,8.267122888271205
