M.L_b.DIC Time [a],M.L_b.DIC DIC [mol/kg]
0.0,0.001941004851304
0.08333333333333333,0.001941004892340527
0.16666666666666666,0.0019410049964728138
0.25,0.0019410051547757473
0.3333333333333333,0.0019410053628540567
0.41666666666666663,0.0019410056250606519
0.5,0.001941005927628185
0.5833333333333333,0.0019410062744949787
0.6666666666666666,0.0019410066667361616
0.75,0.0019410071031325988
0.8333333333333333,0.0019410075815656238
0.9166666666666666,0.0019410080996758046
1.0,0.001941008655066066
1.0833333333333333,0.0019410092453485688
1.1666666666666665,0.0019410098681577359
1.25,0.0019410105211607913
1.3333333333333333,0.0019410112020692891
1.4166666666666665,0.001941011908650299
1.5,0.0019410126387363015
1.5833333333333333,0.0019410133902335335
1.6666666666666665,0.0019410141611777491
1.75,0.0019410149495509956
1.8333333333333333,0.0019410157537168282
1.9166666666666665,0.0019410165718609558
2.0,0.001941017402243785
2.083333333333333,0.001941018243274515
2.1666666666666665,0.0019410190934974062
2.25,0.0019410199515619085
2.333333333333333,0.0019410208162086845
2.4166666666666665,0.00194102168626807
2.5,0.0019410225606608768
2.583333333333333,0.0019410234383971689
2.6666666666666665,0.0019410243185732413
2.75,0.0019410252003679998
2.833333333333333,0.0019410260830393044
2.9166666666666665,0.001941026965920318
3.0,0.0019410278484157694
3.083333333333333,0.00194102872999811
3.1666666666666665,0.0019410296102036013
3.25,0.0019410304886283876
3.333333333333333,0.0019410313649245842
3.4166666666666665,0.0019410322387964144
3.5,0.0019410331099964108
3.583333333333333,0.0019410339783217042
3.6666666666666665,0.0019410348436104134
3.75,0.0019410357057381533
3.833333333333333,0.0019410365646146714
3.9166666666666665,0.0019410374201806228
4.0,0.0019410382724044917
4.083333333333333,0.0019410391212796626
4.166666666666666,0.001941039966821648
4.25,0.0019410408090654722
4.333333333333333,0.0019410416480648445
4.416666666666666,0.0019410424838845104
4.5,0.0019410433166141214
4.583333333333333,0.001941044146148295
4.666666666666666,0.0019410449728627717
4.75,0.0019410457961670598
4.833333333333333,0.0019410466167455638
4.916666666666666,0.0019410474348049247
5.0,0.0019410482504779354
5.083333333333333,0.0019410490638861239
5.166666666666666,0.0019410498751488538
5.25,0.0019410506843841157
5.333333333333333,0.0019410514917080927
5.416666666666666,0.0019410522972346097
5.5,0.0019410531010746331
5.583333333333333,0.00194105390333584
5.666666666666666,0.0019410547041222611
5.75,0.0019410555035339865
5.833333333333333,0.0019410563016669332
5.916666666666666,0.0019410570986126655
6.0,0.0019410578944582672
6.083333333333333,0.0019410586892862583
6.166666666666666,0.0019410594831745522
6.25,0.001941060276196448
6.333333333333333,0.0019410610684206563
6.416666666666666,0.0019410618599113537
6.5,0.0019410626507282605
6.583333333333333,0.0019410634409267405
6.666666666666666,0.0019410642305579193
6.75,0.0019410650196688185
6.833333333333333,0.0019410658083025007
6.916666666666666,0.0019410665964982277
7.0,0.0019410673842916244
7.083333333333333,0.0019410681717148487
7.166666666666666,0.001941068958796768
7.25,0.0019410697455631357
7.333333333333333,0.00194107053203677
7.416666666666666,0.001941071318237732
7.5,0.0019410721041835022
7.583333333333333,0.0019410728898891553
7.666666666666666,0.0019410736753675305
7.75,0.001941074460629398
7.833333333333333,0.0019410752456836208
7.916666666666666,0.001941076030537312
8.0,0.0019410768151959838
8.083333333333332,0.001941077599663693
8.166666666666666,0.0019410783839431786
8.25,0.0019410791680359925
8.333333333333332,0.0019410799519426248
8.416666666666666,0.0019410807356626202
8.5,0.0019410815191946893
8.583333333333332,0.0019410823025368124
8.666666666666666,0.0019410830856863362
8.75,0.0019410838686400637
8.833333333333332,0.0019410846513943387
8.916666666666666,0.0019410854339451224
9.0,0.0019410862162880652
9.083333333333332,0.001941086998418572
9.166666666666666,0.0019410877803318612
9.25,0.0019410885620230187
9.333333333333332,0.0019410893434870476
9.416666666666666,0.0019410901247189111
9.5,0.0019410909057135729
9.583333333333332,0.0019410916864660305
9.666666666666666,0.0019410924669713474
9.75,0.0019410932472246783
9.833333333333332,0.0019410940272212931
9.916666666666666,0.001941094806956597
10.0,0.0019410955864261458
10.083333333333332,0.0019410963656256604
10.166666666666666,0.0019410971445510382
10.25,0.001941097923198361
10.333333333333332,0.001941098701563901
10.416666666666666,0.001941099479644127
10.5,0.0019411002574357054
10.583333333333332,0.0019411010349355013
10.666666666666666,0.0019411018121405787
10.75,0.0019411025890481981
10.833333333333332,0.001941103365655814
10.916666666666666,0.0019411041419610717
11.0,0.0019411049179618007
11.083333333333332,0.0019411056936560111
11.166666666666666,0.0019411064690418875
11.25,0.0019411072441177814
11.333333333333332,0.001941108018882205
11.416666666666666,0.0019411087933338244
11.5,0.0019411095674714514
11.583333333333332,0.0019411103412940369
11.666666666666666,0.0019411111148006626
11.75,0.0019411118879905335
11.833333333333332,0.0019411126608629703
11.916666666666666,0.0019411134334174028
12.0,0.0019411142056533607
12.083333333333332,0.001941114977570468
12.166666666666666,0.0019411157491684358
12.25,0.001941116520447054
12.333333333333332,0.0019411172914061874
12.416666666666666,0.001941118062045766
12.5,0.0019411188323657823
12.583333333333332,0.0019411196023662832
12.666666666666666,0.001941120372047366
12.75,0.0019411211414091716
12.833333333333332,0.001941121910451881
12.916666666666666,0.0019411226791757104
13.0,0.0019411234475809063
13.083333333333332,0.0019411242156677424
13.166666666666666,0.0019411249834365143
13.25,0.0019411257508875378
13.333333333333332,0.0019411265180211447
13.416666666666666,0.00194112728483768
13.5,0.001941128051337499
13.583333333333332,0.001941128817520965
13.666666666666666,0.0019411295833884476
13.75,0.001941130348940319
13.833333333333332,0.0019411311141769546
13.916666666666666,0.0019411318790987294
14.0,0.0019411326437060172
14.083333333333332,0.0019411334079991892
14.166666666666666,0.0019411341719786134
14.25,0.0019411349356446533
14.333333333333332,0.0019411356989976665
14.416666666666666,0.001941136462038005
14.5,0.0019411372247660139
14.583333333333332,0.0019411379871820313
14.666666666666666,0.0019411387492863882
14.75,0.0019411395110794066
14.833333333333332,0.001941140272561402
14.916666666666666,0.0019411410337326813
15.0,0.001941141794593543
15.083333333333332,0.0019411425551442779
15.166666666666666,0.001941143315385168
15.25,0.0019411440753164888
15.333333333333332,0.0019411448349385063
15.416666666666666,0.0019411455942514803
15.5,0.001941146353255662
15.583333333333332,0.0019411471119512966
15.666666666666666,0.0019411478703386218
15.75,0.0019411486284178683
15.833333333333332,0.0019411493861892612
15.916666666666666,0.0019411501436530194
16.0,0.0019411509008093555
16.083333333333332,0.0019411516576584773
16.166666666666664,0.00194115241422068
16.25,0.0019411531704611462
16.333333333333332,0.0019411539264541007
16.416666666666664,0.0019411546821462978
16.5,0.0019411554375451735
16.583333333333332,0.0019411561925678864
16.666666666666664,0.0019411569472737593
16.75,0.0019411577016922323
16.833333333333332,0.001941158455789994
16.916666666666664,0.0019411592096412092
17.0,0.0019411599631928777
17.083333333333332,0.0019411607164523895
17.166666666666664,0.0019411614693372054
17.25,0.0019411622219063945
17.333333333333332,0.0019411629741892705
17.416666666666664,0.0019411637261526349
17.5,0.0019411644778703676
17.583333333333332,0.0019411652292896555
17.666666666666664,0.001941165980417853
17.75,0.001941166731172711
17.833333333333332,0.0019411674816130764
17.916666666666664,0.0019411682317681518
18.0,0.0019411689816048524
18.083333333333332,0.001941169731196792
18.166666666666664,0.0019411704804913421
18.25,0.0019411712294958282
18.333333333333332,0.0019411719781282882
18.416666666666664,0.0019411727264473603
18.5,0.0019411734744821433
18.583333333333332,0.001941174222199668
18.666666666666664,0.0019411749696732902
18.75,0.001941175716850566
18.833333333333332,0.0019411764637387954
18.916666666666664,0.0019411772102563055
19.0,0.0019411779564615294
19.083333333333332,0.001941178702383465
19.166666666666664,0.0019411794479892608
19.25,0.0019411801933520152
19.333333333333332,0.0019411809384194704
19.416666666666664,0.0019411816831989028
19.5,0.001941182427608931
19.583333333333332,0.0019411831717077832
19.666666666666664,0.0019411839155243562
19.75,0.0019411846590259177
19.833333333333332,0.001941185402285306
19.916666666666664,0.0019411861452504524
20.0,0.0019411868879286088
20.083333333333332,0.0019411876302386885
20.166666666666664,0.0019411883722387127
20.25,0.0019411891139574757
20.333333333333332,0.001941189855362365
20.416666666666664,0.001941190596525957
20.5,0.0019411913373963729
20.583333333333332,0.0019411920779808397
20.666666666666664,0.0019411928181985666
20.75,0.0019411935581073656
20.833333333333332,0.0019411942977359282
20.916666666666664,0.0019411950370517613
21.0,0.0019411957761271779
21.083333333333332,0.001941196514910489
21.166666666666664,0.0019411972534088965
21.25,0.0019411979915419058
21.333333333333332,0.0019411987293671193
21.416666666666664,0.0019411994669131232
21.5,0.001941200204147545
21.583333333333332,0.0019412009411424321
21.666666666666664,0.0019412016778462863
21.75,0.0019412024142662835
21.833333333333332,0.0019412031503222257
21.916666666666664,0.0019412038860715033
22.0,0.0019412046215425984
22.083333333333332,0.0019412053567032575
22.166666666666664,0.001941206091625264
22.25,0.0019412068262573089
22.333333333333332,0.0019412075606065414
22.416666666666664,0.0019412082945930596
22.5,0.0019412090282740428
22.583333333333332,0.001941209761677868
22.666666666666664,0.0019412104947724009
22.75,0.0019412112276291603
22.833333333333332,0.0019412119601970263
22.916666666666664,0.0019412126924831217
23.0,0.0019412134244078394
23.083333333333332,0.0019412141560281478
23.166666666666664,0.0019412148873723192
23.25,0.0019412156184083378
23.333333333333332,0.0019412163492074587
23.416666666666664,0.0019412170797187506
23.5,0.00194121780994931
23.583333333333332,0.0019412185398198227
23.666666666666664,0.0019412192693870473
23.75,0.001941219998679152
23.833333333333332,0.0019412207276642388
23.916666666666664,0.0019412214564133003
24.0,0.0019412221848755925
24.083333333333332,0.0019412229130581862
24.166666666666664,0.0019412236408820583
24.25,0.0019412243684037592
24.333333333333332,0.001941225095651353
24.416666666666664,0.001941225822593059
24.5,0.001941226549299608
24.583333333333332,0.0019412272757204437
24.666666666666664,0.0019412280018626102
24.75,0.0019412287276473754
24.833333333333332,0.001941229453131081
24.916666666666664,0.0019412301783416882
25.0,0.0019412309032475331
25.083333333333332,0.0019412316279190868
25.166666666666664,0.0019412323523059778
25.25,0.0019412330764152247
25.333333333333332,0.0019412338001683857
25.416666666666664,0.0019412345236215942
25.5,0.001941235246802709
25.583333333333332,0.0019412359696801826
25.666666666666664,0.0019412366923242266
25.75,0.001941237414684655
25.833333333333332,0.001941238136768461
25.916666666666664,0.0019412388584974902
26.0,0.0019412395799276705
26.083333333333332,0.0019412403010867578
26.166666666666664,0.0019412410219433207
26.25,0.0019412417425673123
26.333333333333332,0.0019412424629087317
26.416666666666664,0.0019412431829745457
26.5,0.001941243902686888
26.583333333333332,0.0019412446221014803
26.666666666666664,0.0019412453412459769
26.75,0.001941246060089061
26.833333333333332,0.0019412467787004296
26.916666666666664,0.0019412474970302651
27.0,0.0019412482150855089
27.083333333333332,0.0019412489327885806
27.166666666666664,0.0019412496501949978
27.25,0.0019412503673323122
27.333333333333332,0.0019412510841693232
27.416666666666664,0.0019412518007754704
27.5,0.00194125251710112
27.583333333333332,0.0019412532331531877
27.666666666666664,0.0019412539488543785
27.75,0.0019412546642600056
27.833333333333332,0.00194125537939752
27.916666666666664,0.0019412560942358352
28.0,0.0019412568088441357
28.083333333333332,0.0019412575231729703
28.166666666666664,0.0019412582372292288
28.25,0.0019412589509359014
28.333333333333332,0.0019412596643480972
28.416666666666664,0.001941260377493166
28.5,0.0019412610903401363
28.583333333333332,0.0019412618029579383
28.666666666666664,0.0019412625152973016
28.75,0.001941263227365092
28.833333333333332,0.0019412639390845817
28.916666666666664,0.0019412646505106781
29.0,0.0019412653616706298
29.083333333333332,0.0019412660725335795
29.166666666666664,0.0019412667831682033
29.25,0.001941267493525413
29.333333333333332,0.0019412682036120486
29.416666666666664,0.0019412689133516644
29.5,0.001941269622798966
29.583333333333332,0.001941270331981102
29.666666666666664,0.0019412710408673282
29.75,0.0019412717495260687
29.833333333333332,0.0019412724579084151
29.916666666666664,0.0019412731660211826
30.0,0.001941273873788207
30.083333333333332,0.0019412745812639922
30.166666666666664,0.0019412752884755875
30.25,0.001941275995392361
30.333333333333332,0.0019412767020824857
30.416666666666664,0.0019412774084972332
30.5,0.0019412781146433931
30.583333333333332,0.0019412788204450817
30.666666666666664,0.0019412795259566025
30.75,0.001941280231204905
30.833333333333332,0.0019412809361594703
30.916666666666664,0.00194128164088822
31.0,0.0019412823453426058
31.083333333333332,0.001941283049529392
31.166666666666664,0.0019412837533729738
31.25,0.0019412844569274552
31.333333333333332,0.0019412851602196865
31.416666666666664,0.001941285863219261
31.5,0.001941286565993851
31.583333333333332,0.0019412872684950856
31.666666666666664,0.001941287970729705
31.75,0.001941288672622383
31.833333333333332,0.0019412893742270236
31.916666666666664,0.0019412900755703785
32.0,0.0019412907766221538
32.08333333333333,0.0019412914774497715
32.166666666666664,0.0019412921780226932
32.25,0.0019412928783242537
32.33333333333333,0.00194129357834926
32.416666666666664,0.0019412942780968683
32.5,0.0019412949775672625
32.58333333333333,0.0019412956767607046
32.666666666666664,0.0019412963756773945
32.75,0.001941297074317492
32.83333333333333,0.0019412977726811444
32.916666666666664,0.0019412984707684957
33.0,0.0019412991685796904
33.08333333333333,0.0019412998661148732
33.166666666666664,0.0019413005633741893
33.25,0.0019413012603577836
33.33333333333333,0.001941301957065801
33.416666666666664,0.0019413026534983876
33.5,0.001941303349655688
33.58333333333333,0.0019413040455378478
33.666666666666664,0.0019413047411450126
33.75,0.001941305436477327
33.83333333333333,0.0019413061315349369
33.916666666666664,0.0019413068263179874
34.0,0.0019413075208266236
34.08333333333333,0.0019413082150609908
34.166666666666664,0.0019413089090212342
34.25,0.0019413096027074987
34.33333333333333,0.0019413102961199293
34.416666666666664,0.0019413109892586708
34.5,0.0019413116821238683
34.58333333333333,0.0019413123747156662
34.666666666666664,0.0019413130670342092
34.75,0.001941313759079642
34.83333333333333,0.0019413144508521093
34.916666666666664,0.0019413151423517548
35.0,0.0019413158335787229
35.08333333333333,0.0019413165245331582
35.166666666666664,0.0019413172152152043
35.25,0.0019413179056250052
35.33333333333333,0.0019413185957627046
35.416666666666664,0.0019413192856284466
35.5,0.0019413199752223744
35.58333333333333,0.0019413206645446316
35.666666666666664,0.001941321353595362
35.75,0.0019413220423747084
35.83333333333333,0.001941322730882814
35.916666666666664,0.001941323419119822
36.0,0.0019413241070858755
36.08333333333333,0.0019413247947811174
36.166666666666664,0.0019413254822056901
36.25,0.0019413261693597367
36.33333333333333,0.0019413268562433997
36.416666666666664,0.0019413275428568212
36.5,0.001941328229200144
36.58333333333333,0.0019413289152735104
36.666666666666664,0.0019413296010770624
36.75,0.0019413302866109422
36.83333333333333,0.001941330971875292
36.916666666666664,0.0019413316568702534
37.0,0.0019413323415959686
37.08333333333333,0.0019413330260525793
37.166666666666664,0.001941333710240227
37.25,0.0019413343941590533
37.33333333333333,0.0019413350778092
37.416666666666664,0.0019413357611908085
37.5,0.0019413364443041233
37.58333333333333,0.0019413371271505195
37.666666666666664,0.0019413378097312515
37.75,0.001941338492047035
37.83333333333333,0.0019413391740982088
37.916666666666664,0.001941339855882933
38.0,0.0019413405373160829
38.08333333333333,0.0019413412184857994
38.166666666666664,0.0019413418993893437
38.25,0.0019413425800263156
38.33333333333333,0.0019413432603967123
38.416666666666664,0.0019413439405006146
38.5,0.001941344620338128
38.58333333333333,0.0019413452999093707
38.666666666666664,0.0019413459792144666
38.75,0.0019413466582535429
38.83333333333333,0.0019413473370267274
38.916666666666664,0.0019413480155341491
39.0,0.0019413486937759363
39.08333333333333,0.0019413493717522151
39.166666666666664,0.0019413500494631125
39.25,0.0019413507269087536
39.33333333333333,0.0019413514040892623
39.416666666666664,0.0019413520810047623
39.5,0.0019413527576553763
39.58333333333333,0.0019413534340412268
39.666666666666664,0.0019413541101624362
39.75,0.0019413547860191263
39.83333333333333,0.0019413554616114187
39.916666666666664,0.0019413561369394357
40.0,0.0019413568120032994
40.08333333333333,0.0019413574868031324
40.166666666666664,0.0019413581613390578
40.25,0.0019413588356111985
40.33333333333333,0.0019413595096196788
40.416666666666664,0.0019413601833646232
40.5,0.0019413608568461568
40.58333333333333,0.0019413615300644049
40.666666666666664,0.0019413622030194943
40.75,0.0019413628757115522
40.83333333333333,0.001941363548140706
40.916666666666664,0.0019413642203070845
41.0,0.0019413648922108164
41.08333333333333,0.001941365563852032
41.166666666666664,0.0019413662352308612
41.25,0.0019413669063474354
41.33333333333333,0.0019413675772018864
41.416666666666664,0.001941368247794346
41.5,0.0019413689181249471
41.58333333333333,0.0019413695881938232
41.666666666666664,0.0019413702580011079
41.75,0.0019413709275469355
41.83333333333333,0.0019413715968314407
41.916666666666664,0.0019413722658547586
42.0,0.0019413729346170249
42.08333333333333,0.001941373603118375
42.166666666666664,0.0019413742713589451
42.25,0.001941374939338872
42.33333333333333,0.0019413756070582918
42.416666666666664,0.0019413762745173414
42.5,0.0019413769417161585
42.58333333333333,0.0019413776086548797
42.666666666666664,0.0019413782753336425
42.75,0.0019413789417525844
42.83333333333333,0.0019413796079118433
42.916666666666664,0.0019413802738115563
43.0,0.0019413809394518617
43.08333333333333,0.0019413816048328967
43.166666666666664,0.0019413822699547996
43.25,0.0019413829348177078
43.33333333333333,0.0019413835994217593
43.416666666666664,0.001941384263767092
43.5,0.0019413849278538432
43.58333333333333,0.0019413855916821509
43.666666666666664,0.0019413862552521528
43.75,0.0019413869185639862
43.83333333333333,0.0019413875816177884
43.916666666666664,0.0019413882444136975
44.0,0.00194138890695185
44.08333333333333,0.001941389569232384
44.166666666666664,0.001941390231255436
44.25,0.001941390893021143
44.33333333333333,0.001941391554529642
44.416666666666664,0.0019413922157810702
44.5,0.0019413928767755637
44.58333333333333,0.0019413935375132594
44.666666666666664,0.0019413941979942939
44.75,0.001941394858218803
44.83333333333333,0.0019413955181869235
44.916666666666664,0.0019413961778987911
45.0,0.0019413968373545422
45.08333333333333,0.0019413974965543125
45.166666666666664,0.0019413981554982378
45.25,0.0019413988141864537
45.33333333333333,0.0019413994726190955
45.416666666666664,0.001941400130796299
45.5,0.001941400788718199
45.58333333333333,0.0019414014463849316
45.666666666666664,0.001941402103796631
45.75,0.001941402760953433
45.83333333333333,0.001941403417855472
45.916666666666664,0.001941404074502883
46.0,0.0019414047308958004
46.08333333333333,0.0019414053870343588
